516 
385 
450 
579 
572 
461 
480 
715 
938 
850 
536 
355 
516 
823 
1002 
1086 
1442 
2238 
3227 
4072 
4731 
5367 
6075 
6671 
6867 
6582 
5913 
4978 
3900 
2828 
1894 
1080 
253 
-606 
-1276 
-1471 
-1217 
-897 
-876 
-1112 
-1242 
-1008 
-571 
-339 
-509 
-864 
-984 
-719 
-284 
-19 
-21 
-92 
-15 
192 
371 
422 
396 
394 
379 
317 
249 
308 
495 
639 
602 
452 
405 
554 
776 
895 
907 
918 
935 
892 
744 
592 
548 
589 
609 
535 
422 
373 
409 
517 
696 
901 
997 
896 
703 
629 
766 
957 
973 
797 
617 
629 
756 
844 
883 
952 
1057 
1048 
848 
592 
531 
735 
1023 
1138 
1048 
928 
933 
1099 
1299 
1384 
1292 
1066 
863 
834 
993 
1187 
1226 
1107 
976 
1068 
1393 
1674 
1646 
1323 
1023 
1058 
1359 
1512 
1272 
899 
897 
1406 
1996 
2123 
1733 
1287 
1261 
1631 
1975 
1949 
1603 
1254 
1172 
1394 
1724 
1913 
1850 
1606 
1413 
1444 
1654 
1817 
1766 
1580 
1398 
1353 
1378 
1356 
1294 
1303 
1423 
1538 
1471 
1180 
889 
866 
1100 
1284 
1164 
877 
790 
1016 
1220 
1045 
596 
322 
423 
602 
458 
65 
-142 
52 
375 
451 
317 
289 
474 
612 
463 
132 
-35 
95 
262 
155 
-150 
-312 
-152 
195 
438 
448 
357 
330 
380 
403 
348 
247 
182 
194 
218 
177 
91 
55 
120 
241 
302 
275 
220 
255 
389 
508 
506 
361 
213 
211 
362 
537 
599 
512 
369 
317 
394 
483 
505 
489 
518 
609 
675 
627 
544 
607 
849 
1026 
882 
480 
142 
172 
508 
798 
804 
623 
526 
638 
860 
1000 
976 
862 
775 
721 
677 
629 
597 
639 
761 
899 
947 
885 
782 
743 
811 
870 
804 
652 
573 
614 
679 
643 
547 
560 
750 
955 
942 
755 
603 
615 
703 
733 
744 
824 
919 
880 
728 
689 
882 
1068 
930 
515 
279 
517 
942 
1003 
580 
153 
218 
685 
1053 
1006 
736 
613 
755 
998 
1148 
1152 
1041 
845 
671 
660 
832 
1000 
954 
747 
622 
747 
969 
1000 
799 
641 
726 
943 
1008 
805 
529 
442 
643 
948 
1098 
1010 
783 
625 
648 
759 
783 
669 
501 
435 
499 
594 
613 
591 
619 
697 
774 
792 
723 
638 
648 
804 
1008 
1083 
923 
665 
592 
804 
1084 
1145 
956 
747 
710 
800 
863 
864 
888 
959 
956 
852 
777 
887 
1116 
1278 
1248 
1162 
1192 
1341 
1465 
1474 
1393 
1305 
1220 
1108 
943 
816 
844 
1023 
1217 
1243 
1079 
893 
874 
1017 
1112 
1006 
785 
657 
712 
830 
825 
699 
618 
702 
868 
911 
743 
509 
414 
504 
634 
660 
608 
605 
719 
855 
826 
661 
596 
804 
1089 
1063 
618 
135 
151 
679 
1124 
924 
245 
-157 
200 
968 
1366 
1076 
567 
486 
886 
1254 
1116 
590 
190 
195 
411 
535 
473 
388 
435 
597 
843 
1210 
1756 
2438 
3128 
3829 
4682 
5643 
6504 
6977 
6938 
6507 
5865 
5047 
4043 
2872 
1635 
457 
-517 
-1102 
-1193 
-975 
-830 
-959 
-1203 
-1199 
-884 
-587 
-624 
-925 
-1104 
-941 
-619 
-397 
-320 
-217 
19 
230 
220 
24 
-125 
-60 
177 
330 
331 
264 
271 
411 
584 
632 
538 
387 
290 
280 
312 
343 
376 
454 
576 
685 
696 
635 
624 
743 
908 
918 
702 
460 
480 
783 
1042 
939 
578 
340 
477 
840 
1045 
942 
769 
773 
927 
994 
860 
685 
649 
723 
756 
699 
682 
819 
1012 
1067 
963 
895 
996 
1173 
1223 
1051 
823 
769 
951 
1212 
1323 
1211 
1007 
938 
1083 
1300 
1390 
1261 
1065 
1030 
1192 
1410 
1537 
1548 
1533 
1560 
1573 
1527 
1449 
1437 
1543 
1673 
1712 
1646 
1566 
1612 
1819 
2072 
2154 
1965 
1654 
1481 
1589 
1810 
1842 
1571 
1263 
1232 
1491 
1746 
1735 
1541 
1458 
1572 
1642 
1443 
1084 
917 
1097 
1339 
1293 
997 
799 
927 
1195 
1254 
1048 
820 
767 
796 
709 
556 
524 
703 
866 
799 
563 
408 
483 
629 
638 
449 
216 
50 
-34 
-49 
28 
168 
256 
163 
-50 
-174 
-81 
126 
254 
215 
121 
107 
183 
260 
309 
358 
423 
451 
379 
240 
153 
191 
281 
314 
236 
134 
133 
258 
421 
487 
445 
386 
437 
558 
612 
533 
436 
457 
604 
717 
678 
534 
416 
389 
416 
432 
434 
443 
471 
523 
634 
771 
851 
802 
689 
654 
757 
845 
748 
524 
421 
556 
801 
863 
709 
567 
656 
879 
972 
828 
652 
645 
751 
757 
593 
460 
555 
786 
903 
780 
572 
509 
634 
785 
808 
698 
543 
461 
524 
676 
785 
725 
538 
428 
572 
875 
1044 
921 
682 
604 
785 
983 
940 
660 
448 
536 
863 
1122 
1077 
790 
550 
599 
864 
1031 
910 
553 
279 
322 
605 
816 
750 
525 
443 
659 
971 
1057 
857 
609 
522 
573 
625 
609 
579 
582 
573 
568 
686 
934 
1091 
941 
596 
436 
693 
1089 
1174 
883 
595 
632 
899 
1036 
904 
680 
618 
713 
782 
704 
554 
469 
497 
607 
731 
779 
722 
653 
673 
803 
922 
906 
775 
655 
610 
605 
646 
778 
987 
1110 
985 
746 
689 
920 
1170 
1064 
670 
434 
697 
1191 
1358 
1039 
688 
779 
1246 
1554 
1364 
939 
756 
952 
1223 
1254 
1084 
964 
1002 
1108 
1171 
1180 
1149 
1056 
908 
780 
810 
976 
1111 
1101 
974 
868 
837 
819 
775 
674 
584 
508 
432 
328 
248 
302 
557 
901 
1108 
995 
704 
609 
875 
1237 
1264 
852 
331 
103 
218 
408 
469 
462 
519 
641 
708 
672 
651 
725 
800 
795 
715 
658 
662 
661 
652 
715 
907 
1083 
1045 
785 
559 
564 
700 
755 
702 
742 
1042 
1475 
1852 
2263 
3037 
4243 
5462 
6220 
6448 
6508 
6631 
6607 
6049 
4931 
3574 
2305 
1206 
238 
-509 
-928 
-1124 
-1300 
-1457 
-1386 
-1050 
-672 
-562 
-694 
-770 
-661 
-528 
-582 
-719 
-635 
-305 
-50 
-112 
-315 
-280 
78 
403 
347 
48 
-20 
323 
762 
823 
468 
113 
166 
509 
748 
651 
376 
283 
449 
675 
756 
657 
513 
416 
417 
495 
658 
841 
909 
813 
658 
613 
702 
793 
774 
689 
648 
658 
669 
662 
724 
914 
1102 
1076 
802 
518 
535 
847 
1135 
1076 
769 
598 
800 
1186 
1320 
1056 
701 
617 
834 
1025 
945 
733 
723 
1012 
1358 
1493 
1417 
1283 
1222 
1245 
1291 
1322 
1309 
1227 
1131 
1115 
1242 
1445 
1553 
1538 
1501 
1494 
1449 
1273 
1110 
1184 
1511 
1771 
1699 
1406 
1307 
1629 
2098 
2236 
1903 
1459 
1341 
1597 
1874 
1853 
1557 
1305 
1324 
1526 
1667 
1578 
1318 
1152 
1244 
1517 
1706 
1615 
1317 
1051 
1011 
1175 
1319 
1255 
999 
729 
609 
660 
779 
829 
776 
659 
552 
496 
460 
416 
352 
300 
253 
214 
204 
256 
321 
318 
233 
165 
228 
368 
393 
212 
-59 
-223 
-157 
18 
105 
-7 
-187 
-206 
24 
364 
527 
399 
167 
138 
358 
532 
379 
-35 
-299 
-123 
304 
543 
364 
17 
-90 
170 
505 
560 
302 
37 
39 
248 
406 
390 
352 
448 
609 
628 
514 
451 
607 
838 
854 
634 
451 
539 
752 
778 
555 
352 
397 
598 
686 
569 
474 
602 
881 
1053 
955 
726 
655 
835 
1079 
1116 
863 
513 
355 
485 
750 
883 
805 
637 
587 
709 
868 
930 
877 
773 
705 
688 
690 
694 
726 
788 
834 
849 
838 
817 
779 
731 
697 
696 
691 
619 
487 
416 
543 
804 
991 
945 
763 
665 
730 
818 
787 
662 
608 
666 
737 
740 
685 
665 
717 
813 
904 
923 
854 
728 
658 
728 
876 
941 
847 
739 
786 
955 
1029 
911 
766 
811 
994 
1024 
766 
473 
473 
773 
1018 
925 
648 
552 
759 
1027 
1086 
933 
767 
731 
751 
748 
755 
826 
899 
864 
745 
705 
837 
1002 
970 
730 
519 
557 
773 
901 
796 
595 
541 
677 
841 
881 
820 
813 
901 
963 
918 
833 
836 
890 
847 
690 
615 
809 
1109 
1172 
905 
681 
924 
1482 
1733 
1314 
607 
383 
903 
1610 
1739 
1174 
558 
573 
1202 
1799 
1793 
1270 
775 
725 
1040 
1296 
1226 
954 
795 
888 
1081 
1133 
1000 
878 
916 
1055 
1147 
1143 
1064 
951 
816 
701 
703 
836 
950 
862 
600 
432 
555 
860 
1036 
903 
622 
488 
588 
752 
756 
590 
427 
438 
620 
782 
772 
613 
508 
619 
891 
1088 
1018 
752 
556 
601 
788 
889 
810 
685 
675 
733 
728 
670 
686 
854 
1030 
990 
710 
418 
361 
563 
878 
1195 
1505 
1867 
2363 
3084 
4075 
5183 
6079 
6512 
6507 
6253 
5866 
5258 
4382 
3349 
2359 
1410 
433 
-522 
-1221 
-1473 
-1398 
-1301 
-1322 
-1382 
-1317 
-1126 
-956 
-807 
-572 
-236 
15 
2 
-167 
-181 
119 
453 
427 
28 
-300 
-181 
220 
390 
139 
-118 
80 
627 
941 
685 
209 
87 
428 
782 
801 
623 
601 
792 
922 
788 
596 
604 
821 
971 
860 
643 
604 
836 
1130 
1168 
926 
668 
663 
843 
908 
684 
354 
287 
565 
901 
992 
850 
761 
891 
1100 
1164 
1081 
964 
869 
790 
734 
830 
1094 
1300 
1243 
993 
861 
996 
1198 
1144 
830 
606 
752 
1153 
1456 
1454 
1307 
1257 
1375 
1524 
1551 
1438 
1252 
1091 
1010 
1061 
1245 
1444 
1533 
1468 
1373 
1434 
1709 
2007 
2086 
1882 
1533 
1385 
1564 
1838 
1877 
1617 
1334 
1351 
1610 
1740 
1544 
1252 
1264 
1601 
1896 
1849 
1578 
1453 
1611 
1818 
1826 
1601 
1350 
1234 
1234 
1303 
1385 
1420 
1353 
1182 
1061 
1099 
1177 
1089 
817 
605 
684 
868 
770 
325 
-20 
183 
752 
1036 
667 
19 
-240 
38 
391 
378 
155 
131 
341 
464 
320 
130 
195 
377 
361 
84 
-160 
-120 
42 
74 
22 
103 
298 
325 
84 
-106 
77 
494 
675 
388 
28 
80 
528 
881 
750 
299 
-9 
77 
376 
563 
478 
226 
44 
80 
326 
614 
718 
560 
299 
196 
367 
621 
675 
496 
344 
446 
690 
742 
476 
187 
213 
536 
775 
668 
373 
309 
609 
955 
952 
630 
388 
525 
870 
998 
720 
331 
277 
667 
1122 
1174 
783 
371 
355 
689 
938 
790 
411 
194 
358 
746 
1006 
1009 
904 
890 
976 
1017 
911 
755 
672 
687 
687 
607 
541 
675 
997 
1249 
1146 
737 
415 
476 
812 
1012 
817 
414 
213 
401 
779 
1018 
1010 
888 
827 
837 
838 
777 
702 
686 
717 
748 
732 
679 
629 
677 
827 
952 
873 
605 
416 
547 
926 
1159 
1011 
720 
734 
1156 
1546 
1444 
933 
538 
576 
816 
823 
525 
270 
334 
623 
844 
922 
985 
1095 
1121 
943 
695 
601 
672 
744 
661 
517 
556 
808 
1054 
1088 
966 
905 
1027 
1203 
1199 
981 
735 
682 
870 
1106 
1192 
1064 
832 
668 
665 
812 
991 
1089 
1061 
975 
924 
981 
1118 
1248 
1247 
1142 
1048 
1076 
1203 
1283 
1203 
1072 
1072 
1214 
1306 
1175 
909 
755 
843 
1026 
1079 
942 
744 
614 
583 
617 
690 
750 
713 
583 
482 
536 
701 
808 
762 
645 
598 
617 
618 
577 
537 
582 
688 
787 
854 
874 
861 
840 
847 
882 
887 
808 
701 
663 
735 
837 
871 
844 
826 
864 
942 
990 
961 
857 
758 
801 
1056 
1367 
1518 
1512 
1707 
2403 
3508 
4490 
4964 
5032 
5080 
5281 
5365 
4957 
4024 
2878 
1848 
1052 
417 
-160 
-708 
-1149 
-1360 
-1308 
-1093 
-933 
-932 
-968 
-859 
-561 
-259 
-151 
-214 
-253 
-119 
81 
221 
280 
327 
389 
415 
365 
344 
403 
489 
515 
490 
565 
791 
1005 
974 
691 
433 
510 
887 
1188 
1120 
725 
375 
361 
649 
905 
857 
566 
342 
400 
652 
836 
837 
796 
906 
1137 
1330 
1343 
1223 
1136 
1140 
1158 
1115 
992 
826 
688 
683 
874 
1170 
1349 
1303 
1136 
1030 
1052 
1090 
1035 
946 
888 
875 
873 
920 
1047 
1251 
1410 
1440 
1381 
1344 
1358 
1356 
1273 
1112 
945 
868 
967 
1209 
1443 
1503 
1391 
1312 
1449 
1696 
1794 
1625 
1371 
1300 
1440 
1609 
1671 
1663 
1692 
1762 
1801 
1812 
1838 
1885 
1882 
1759 
1565 
1455 
1499 
1640 
1732 
1670 
1532 
1506 
1728 
2050 
2121 
1785 
1313 
1175 
1512 
1920 
1890 
1413 
987 
1017 
1366 
1548 
1337 
1031 
949 
1041 
1015 
778 
569 
607 
764 
804 
700 
679 
812 
909 
782 
556 
512 
662 
671 
314 
-159 
-259 
141 
594 
576 
127 
-236 
-110 
338 
616 
473 
150 
26 
208 
489 
640 
600 
473 
340 
267 
292 
357 
366 
263 
106 
110 
321 
563 
628 
504 
411 
512 
698 
723 
514 
274 
217 
365 
517 
534 
472 
443 
484 
555 
605 
609 
544 
444 
358 
381 
504 
605 
581 
503 
555 
767 
967 
926 
687 
509 
574 
854 
1054 
1001 
810 
699 
767 
902 
961 
914 
856 
829 
773 
670 
593 
622 
759 
858 
839 
762 
752 
858 
981 
1016 
949 
877 
849 
868 
928 
1028 
1089 
1013 
828 
688 
700 
782 
779 
689 
655 
759 
867 
815 
678 
727 
1012 
1236 
1129 
798 
622 
795 
1077 
1140 
940 
719 
729 
968 
1214 
1322 
1267 
1124 
948 
779 
657 
615 
665 
764 
828 
783 
654 
610 
776 
1045 
1133 
896 
539 
392 
545 
772 
811 
691 
633 
745 
924 
1042 
1102 
1186 
1274 
1218 
980 
749 
753 
955 
1070 
928 
674 
605 
786 
997 
1033 
971 
1031 
1201 
1236 
1009 
801 
946 
1344 
1498 
1119 
547 
397 
865 
1465 
1608 
1244 
862 
895 
1256 
1522 
1417 
1065 
808 
842 
1019 
1128 
1064 
948 
934 
1048 
1176 
1209 
1139 
1058 
1016 
1032 
1119 
1272 
1381 
1338 
1185 
1158 
1310 
1451 
1313 
939 
684 
767 
1004 
1028 
808 
692 
920 
1272 
1344 
1083 
810 
828 
1028 
1109 
961 
757 
693 
774 
891 
953 
905 
768 
653 
702 
897 
1031 
905 
629 
553 
831 
1159 
1168 
839 
610 
735 
1004 
1056 
870 
779 
945 
1141 
1100 
931 
936 
1173 
1374 
1335 
1292 
1592 
2262 
3006 
3625 
4170 
4761 
5287 
5558 
5546 
5368 
4981 
4207 
3071 
1894 
1036 
469 
-82 
-716 
-1161 
-1151 
-825 
-589 
-647 
-757 
-626 
-320 
-164 
-345 
-596 
-543 
-176 
147 
149 
-31 
-18 
322 
677 
664 
335 
118 
282 
657 
813 
636 
432 
524 
862 
1127 
1118 
908 
729 
679 
738 
822 
885 
890 
840 
807 
871 
1013 
1107 
1023 
839 
732 
821 
984 
1024 
897 
724 
679 
775 
889 
958 
1000 
1074 
1133 
1093 
971 
882 
954 
1135 
1249 
1170 
965 
831 
883 
1058 
1193 
1175 
1049 
955 
965 
1038 
1146 
1220 
1247 
1250 
1219 
1163 
1110 
1115 
1192 
1264 
1219 
1074 
1023 
1224 
1593 
1820 
1658 
1276 
1050 
1185 
1486 
1573 
1364 
1099 
1075 
1302 
1547 
1617 
1548 
1529 
1628 
1739 
1769 
1695 
1586 
1532 
1601 
1722 
1823 
1818 
1717 
1654 
1755 
1980 
2111 
1970 
1640 
1382 
1374 
1544 
1650 
1563 
1371 
1283 
1344 
1412 
1360 
1198 
1071 
1067 
1133 
1132 
981 
732 
533 
497 
613 
774 
869 
855 
804 
793 
826 
847 
824 
736 
573 
348 
115 
-36 
-30 
106 
249 
259 
108 
-78 
-114 
32 
243 
359 
329 
228 
224 
337 
474 
507 
396 
264 
259 
398 
521 
445 
205 
71 
294 
760 
1035 
800 
249 
-78 
141 
672 
934 
675 
219 
60 
336 
733 
907 
823 
676 
555 
422 
279 
239 
339 
493 
547 
507 
445 
454 
538 
656 
750 
721 
565 
411 
445 
676 
890 
870 
681 
596 
720 
850 
770 
564 
521 
726 
943 
913 
705 
635 
830 
1050 
1009 
765 
609 
760 
1077 
1201 
987 
675 
587 
796 
1019 
961 
648 
434 
570 
886 
1029 
852 
616 
653 
970 
1221 
1121 
776 
562 
691 
974 
1039 
763 
464 
496 
837 
1080 
958 
682 
635 
898 
1142 
1084 
903 
915 
1133 
1233 
1029 
713 
595 
704 
817 
801 
760 
783 
798 
761 
783 
995 
1238 
1164 
762 
488 
739 
1265 
1443 
1056 
568 
554 
960 
1206 
967 
583 
569 
948 
1207 
1043 
692 
614 
905 
1190 
1139 
896 
805 
950 
1074 
980 
804 
811 
1007 
1128 
999 
792 
752 
916 
1073 
1048 
925 
868 
927 
1027 
1120 
1174 
1130 
987 
842 
856 
1043 
1194 
1133 
1000 
1063 
1371 
1628 
1519 
1149 
908 
1006 
1234 
1250 
1021 
814 
845 
1042 
1192 
1179 
1106 
1106 
1223 
1340 
1360 
1263 
1148 
1114 
1153 
1107 
917 
732 
743 
912 
974 
764 
481 
447 
699 
929 
870 
643 
596 
853 
1150 
1163 
884 
627 
653 
921 
1140 
1056 
717 
404 
398 
679 
937 
866 
519 
248 
342 
703 
967 
926 
728 
626 
749 
955 
1017 
941 
911 
1043 
1221 
1198 
949 
668 
625 
846 
1096 
1177 
1219 
1526 
2202 
2993 
3580 
3959 
4366 
4926 
5425 
5514 
5071 
4265 
3398 
2648 
2000 
1335 
569 
-235 
-884 
-1136 
-955 
-608 
-452 
-616 
-859 
-817 
-506 
-227 
-229 
-405 
-430 
-210 
65 
121 
-5 
-59 
129 
412 
560 
506 
388 
344 
410 
588 
810 
962 
933 
751 
644 
740 
925 
933 
703 
474 
493 
723 
879 
823 
675 
683 
843 
946 
845 
659 
611 
789 
1050 
1181 
1117 
962 
894 
944 
1014 
992 
908 
834 
827 
812 
751 
668 
636 
708 
834 
930 
922 
799 
661 
667 
905 
1198 
1227 
886 
505 
535 
1008 
1474 
1461 
1076 
824 
963 
1253 
1334 
1172 
1048 
1126 
1237 
1239 
1205 
1287 
1478 
1595 
1554 
1506 
1544 
1558 
1393 
1149 
1115 
1370 
1662 
1682 
1445 
1267 
1378 
1665 
1842 
1772 
1580 
1459 
1468 
1571 
1677 
1731 
1730 
1704 
1687 
1661 
1584 
1465 
1418 
1485 
1552 
1485 
1315 
1257 
1447 
1729 
1802 
1595 
1324 
1218 
1281 
1324 
1242 
1098 
992 
899 
791 
740 
786 
822 
716 
494 
386 
529 
772 
823 
621 
414 
402 
504 
507 
364 
241 
262 
354 
385 
352 
340 
375 
367 
302 
265 
311 
379 
366 
283 
267 
359 
467 
499 
485 
510 
543 
461 
305 
257 
407 
573 
525 
315 
229 
404 
637 
653 
451 
339 
525 
824 
895 
654 
375 
383 
658 
847 
636 
144 
-133 
152 
797 
1195 
974 
425 
199 
579 
1143 
1276 
856 
362 
259 
529 
799 
795 
642 
569 
592 
587 
542 
588 
763 
937 
930 
790 
720 
808 
947 
976 
896 
806 
746 
656 
516 
449 
560 
787 
939 
901 
768 
726 
818 
927 
901 
755 
646 
670 
787 
849 
766 
659 
711 
929 
1101 
1049 
846 
734 
848 
1064 
1124 
957 
713 
594 
641 
761 
852 
879 
848 
807 
837 
962 
1111 
1169 
1104 
1001 
985 
1053 
1075 
975 
796 
671 
737 
969 
1215 
1287 
1147 
952 
876 
974 
1112 
1100 
870 
530 
296 
320 
574 
842 
877 
687 
539 
711 
1150 
1486 
1397 
981 
622 
562 
739 
880 
844 
733 
704 
781 
869 
924 
956 
991 
997 
928 
831 
797 
869 
991 
1084 
1152 
1175 
1154 
1103 
1059 
1065 
1073 
968 
744 
572 
657 
928 
1097 
981 
720 
631 
825 
1085 
1140 
965 
766 
751 
941 
1207 
1409 
1453 
1340 
1138 
998 
1030 
1161 
1231 
1145 
988 
934 
1021 
1140 
1166 
1151 
1220 
1353 
1408 
1260 
1040 
978 
1080 
1163 
1100 
1002 
1046 
1150 
1123 
947 
867 
1019 
1219 
1189 
914 
664 
642 
748 
804 
789 
788 
803 
765 
717 
842 
1093 
1171 
918 
549 
465 
724 
953 
910 
773 
871 
1138 
1241 
1056 
879 
992 
1217 
1172 
823 
520 
539 
728 
805 
746 
735 
804 
806 
719 
752 
1038 
1369 
1404 
1176 
1106 
1539 
2299 
2918 
3209 
3456 
3991 
4718 
5235 
5247 
4796 
4172 
3530 
2830 
1996 
1117 
356 
-194 
-577 
-835 
-900 
-714 
-391 
-198 
-284 
-498 
-544 
-346 
-115 
-85 
-231 
-332 
-239 
3 
209 
317 
368 
404 
406 
375 
366 
422 
534 
628 
673 
684 
670 
684 
750 
934 
1156 
1265 
1128 
875 
763 
901 
1059 
953 
573 
231 
208 
462 
768 
941 
1010 
1047 
1076 
1096 
1146 
1239 
1270 
1145 
895 
690 
656 
758 
893 
1030 
1169 
1193 
1063 
869 
820 
989 
1113 
991 
709 
591 
762 
980 
996 
935 
1038 
1280 
1344 
1084 
795 
892 
1322 
1540 
1248 
750 
622 
996 
1422 
1453 
1155 
933 
1011 
1226 
1313 
1288 
1327 
1468 
1536 
1411 
1238 
1244 
1456 
1655 
1597 
1320 
1093 
1140 
1449 
1752 
1854 
1760 
1609 
1561 
1642 
1775 
1879 
1896 
1782 
1568 
1431 
1496 
1694 
1805 
1690 
1451 
1303 
1341 
1443 
1434 
1302 
1180 
1204 
1369 
1516 
1505 
1316 
1124 
1086 
1197 
1246 
1054 
743 
639 
859 
1099 
996 
574 
262 
390 
726 
771 
367 
-99 
-126 
296 
700 
726 
439 
220 
277 
480 
621 
613 
500 
367 
281 
307 
485 
685 
728 
558 
345 
314 
447 
544 
420 
161 
34 
155 
391 
545 
565 
510 
467 
476 
540 
594 
546 
372 
168 
143 
346 
605 
643 
454 
285 
330 
551 
766 
867 
881 
849 
770 
678 
640 
662 
602 
385 
190 
266 
615 
884 
821 
578 
516 
756 
978 
900 
625 
478 
563 
671 
640 
577 
621 
728 
751 
670 
660 
799 
941 
886 
697 
610 
715 
852 
900 
936 
1037 
1092 
912 
534 
286 
408 
756 
955 
824 
558 
489 
683 
944 
1042 
931 
770 
663 
651 
712 
769 
811 
824 
799 
782 
753 
715 
711 
767 
864 
911 
868 
763 
668 
655 
758 
927 
1045 
1005 
800 
616 
681 
985 
1223 
1124 
812 
687 
947 
1274 
1251 
841 
470 
523 
868 
1076 
909 
614 
584 
835 
1070 
1044 
839 
739 
885 
1097 
1104 
857 
592 
571 
799 
1050 
1100 
953 
803 
756 
766 
768 
778 
830 
875 
829 
720 
690 
848 
1084 
1188 
1077 
895 
852 
950 
1024 
948 
831 
838 
990 
1113 
1039 
852 
779 
906 
1045 
984 
772 
652 
739 
903 
950 
910 
976 
1153 
1217 
1048 
827 
798 
968 
1103 
1060 
962 
1004 
1153 
1221 
1129 
1025 
1033 
1114 
1149 
1107 
1040 
984 
940 
981 
1169 
1393 
1435 
1215 
943 
883 
1045 
1172 
1042 
767 
654 
806 
1045 
1076 
836 
607 
680 
1008 
1251 
1171 
879 
767 
1029 
1443 
1626 
1489 
1285 
1268 
1380 
1409 
1303 
1159 
1042 
903 
740 
696 
853 
1046 
1039 
844 
728 
822 
959 
859 
566 
415 
580 
846 
888 
711 
636 
842 
1123 
1160 
959 
801 
834 
887 
739 
489 
437 
656 
875 
840 
658 
651 
885 
1048 
899 
608 
548 
812 
1095 
1071 
831 
714 
889 
1153 
1217 
1031 
856 
944 
1353 
1922 
2462 
2935 
3370 
3844 
4378 
4865 
5133 
5025 
4518 
3746 
2935 
2228 
1590 
913 
154 
-519 
-875 
-847 
-620 
-496 
-545 
-595 
-467 
-203 
-54 
-166 
-351 
-325 
-67 
125 
37 
-155 
-66 
380 
830 
859 
523 
282 
387 
627 
661 
467 
354 
476 
657 
682 
616 
671 
836 
867 
671 
502 
629 
939 
1029 
733 
421 
502 
926 
1225 
1069 
682 
537 
768 
1037 
1005 
768 
667 
880 
1152 
1168 
944 
822 
1010 
1301 
1319 
985 
602 
528 
787 
1050 
1043 
822 
684 
813 
1093 
1258 
1162 
926 
809 
932 
1142 
1208 
1045 
851 
853 
1059 
1279 
1346 
1266 
1137 
1049 
1046 
1160 
1368 
1518 
1477 
1281 
1166 
1285 
1551 
1685 
1548 
1299 
1197 
1296 
1415 
1407 
1305 
1270 
1394 
1608 
1731 
1673 
1502 
1397 
1459 
1598 
1647 
1517 
1344 
1315 
1456 
1637 
1750 
1820 
1877 
1897 
1813 
1669 
1600 
1617 
1637 
1537 
1345 
1163 
1087 
1125 
1232 
1342 
1362 
1202 
974 
905 
1083 
1303 
1238 
831 
419 
393 
702 
922 
717 
241 
0 
249 
702 
863 
576 
196 
143 
429 
701 
682 
468 
385 
529 
675 
635 
450 
331 
364 
427 
367 
217 
130 
169 
299 
451 
585 
691 
743 
700 
564 
408 
337 
407 
514 
477 
250 
47 
160 
630 
1091 
1090 
622 
177 
214 
651 
923 
691 
184 
-83 
166 
667 
938 
776 
445 
343 
606 
981 
1073 
768 
405 
383 
720 
1018 
917 
544 
351 
552 
853 
879 
651 
536 
732 
983 
931 
593 
341 
426 
674 
771 
669 
630 
770 
905 
779 
511 
457 
732 
1047 
998 
594 
251 
357 
834 
1246 
1244 
884 
507 
408 
653 
1023 
1225 
1108 
740 
427 
455 
809 
1137 
1128 
816 
517 
525 
787 
978 
930 
788 
788 
974 
1107 
1007 
776 
681 
768 
832 
727 
579 
649 
927 
1102 
970 
762 
853 
1240 
1478 
1204 
628 
317 
557 
1009 
1137 
864 
521 
453 
665 
939 
1115 
1174 
1159 
1063 
913 
828 
808 
770 
660 
541 
531 
606 
663 
647 
709 
914 
1109 
1090 
903 
833 
1007 
1217 
1158 
858 
637 
743 
1038 
1199 
1078 
834 
712 
774 
896 
948 
869 
700 
575 
587 
727 
880 
952 
973 
1017 
1079 
1047 
849 
635 
576 
659 
699 
617 
512 
555 
730 
849 
825 
796 
934 
1151 
1217 
1034 
782 
692 
793 
901 
884 
820 
869 
1025 
1103 
975 
763 
725 
927 
1158 
1129 
841 
584 
617 
885 
1121 
1126 
983 
852 
799 
784 
792 
843 
915 
897 
754 
587 
600 
820 
1044 
1076 
960 
906 
1060 
1276 
1299 
1068 
805 
762 
957 
1159 
1161 
1005 
910 
965 
1086 
1151 
1172 
1203 
1210 
1119 
954 
873 
977 
1125 
1120 
962 
878 
987 
1171 
1192 
1054 
965 
1101 
1297 
1303 
1081 
883 
925 
1130 
1249 
1172 
1034 
1004 
1062 
1060 
942 
827 
803 
790 
673 
514 
485 
613 
734 
687 
576 
602 
774 
881 
768 
597 
624 
842 
1007 
954 
823 
875 
1102 
1227 
1032 
688 
521 
671 
928 
949 
693 
476 
620 
1066 
1401 
1301 
918 
724 
936 
1252 
1225 
788 
350 
319 
695 
1121 
1378 
1550 
1861 
2385 
3028 
3670 
4273 
4777 
5049 
4949 
4532 
4019 
3557 
3098 
2472 
1623 
708 
29 
-243 
-219 
-149 
-221 
-395 
-501 
-459 
-315 
-197 
-178 
-242 
-319 
-353 
-288 
-138 
23 
151 
249 
389 
563 
649 
549 
355 
261 
373 
544 
558 
414 
336 
496 
796 
1006 
1010 
913 
852 
868 
883 
864 
843 
834 
803 
716 
650 
710 
854 
953 
915 
804 
730 
745 
774 
781 
821 
923 
1049 
1108 
1069 
992 
926 
894 
889 
895 
896 
835 
726 
701 
889 
1223 
1442 
1347 
1062 
940 
1155 
1471 
1513 
1200 
845 
810 
1108 
1378 
1320 
1033 
859 
977 
1224 
1318 
1188 
1020 
995 
1093 
1183 
1204 
1243 
1341 
1411 
1398 
1328 
1301 
1349 
1388 
1361 
1312 
1314 
1348 
1326 
1252 
1287 
1520 
1824 
1947 
1777 
1477 
1336 
1487 
1761 
1840 
1589 
1202 
1041 
1282 
1717 
1957 
1801 
1436 
1246 
1383 
1693 
1869 
1751 
1408 
1111 
1079 
1298 
1537 
1527 
1249 
941 
858 
940 
906 
643 
412 
525 
902 
1121 
938 
583 
500 
781 
1051 
941 
518 
189 
201 
416 
562 
556 
541 
589 
634 
577 
442 
389 
466 
553 
492 
315 
204 
302 
543 
689 
609 
417 
394 
615 
854 
848 
582 
343 
399 
672 
834 
654 
276 
70 
205 
483 
566 
381 
191 
307 
698 
1002 
946 
638 
439 
522 
704 
755 
629 
536 
625 
791 
854 
771 
674 
656 
652 
568 
446 
381 
431 
552 
663 
754 
820 
827 
748 
648 
621 
670 
694 
601 
438 
335 
379 
548 
763 
976 
1134 
1142 
983 
805 
790 
960 
1055 
873 
498 
252 
387 
746 
963 
899 
739 
740 
898 
998 
901 
709 
627 
714 
822 
788 
609 
460 
524 
784 
1031 
1030 
776 
504 
455 
638 
839 
903 
834 
785 
846 
968 
1042 
1010 
891 
765 
709 
732 
769 
735 
667 
691 
855 
1041 
1088 
1007 
940 
988 
1047 
939 
707 
591 
702 
908 
993 
908 
783 
748 
803 
896 
986 
1026 
981 
850 
744 
816 
1038 
1191 
1091 
814 
596 
582 
706 
799 
794 
783 
834 
885 
849 
774 
819 
1037 
1226 
1134 
782 
512 
640 
1041 
1279 
1108 
722 
554 
759 
1036 
1059 
846 
682 
709 
799 
781 
731 
845 
1096 
1233 
1082 
790 
679 
878 
1173 
1234 
972 
645 
552 
741 
963 
935 
665 
450 
537 
843 
1057 
1004 
824 
783 
986 
1220 
1187 
905 
648 
651 
884 
1019 
924 
754 
726 
847 
939 
966 
1038 
1216 
1322 
1152 
817 
676 
864 
1086 
985 
582 
279 
369 
720 
993 
1042 
1006 
1023 
1050 
1017 
968 
996 
1060 
1021 
835 
643 
674 
950 
1244 
1307 
1096 
869 
856 
1015 
1071 
834 
484 
362 
560 
802 
832 
771 
900 
1187 
1285 
1024 
680 
685 
1017 
1212 
943 
489 
394 
787 
1209 
1236 
957 
849 
1119 
1417 
1331 
974 
857 
1224 
1657 
1583 
1023 
567 
700 
1189 
1405 
1105 
694 
705 
1112 
1387 
1194 
782 
644 
901 
1208 
1198 
890 
625 
662 
917 
1101 
1067 
891 
753 
741 
794 
793 
705 
607 
592 
673 
780 
837 
847 
880 
939 
1003 
1023 
984 
886 
768 
672 
657 
741 
834 
821 
736 
741 
922 
1127 
1097 
798 
564 
690 
1052 
1209 
914 
447 
293 
587 
954 
1000 
764 
623 
841 
1308 
1810 
2257 
2742 
3291 
3860 
4410 
4921 
5305 
5359 
4951 
4231 
3475 
2831 
2183 
1383 
502 
-230 
-649 
-776 
-738 
-644 
-563 
-497 
-461 
-378 
-211 
-77 
-112 
-279 
-371 
-230 
60 
227 
142 
-5 
96 
504 
878 
887 
529 
174 
198 
527 
807 
746 
441 
252 
356 
597 
738 
728 
713 
763 
824 
831 
802 
824 
893 
942 
894 
782 
660 
576 
575 
699 
877 
996 
970 
852 
805 
921 
1139 
1300 
1285 
1112 
873 
711 
734 
905 
1085 
1109 
961 
773 
703 
808 
989 
1114 
1091 
950 
826 
835 
945 
1081 
1120 
1039 
961 
973 
1019 
1016 
927 
860 
933 
1159 
1402 
1493 
1409 
1269 
1250 
1404 
1577 
1582 
1361 
1046 
840 
858 
1048 
1255 
1352 
1310 
1236 
1264 
1439 
1685 
1782 
1635 
1384 
1270 
1427 
1726 
1838 
1634 
1316 
1203 
1445 
1834 
1968 
1712 
1349 
1256 
1490 
1764 
1789 
1607 
1479 
1516 
1532 
1352 
1098 
1066 
1329 
1589 
1527 
1209 
971 
1018 
1214 
1275 
1154 
945 
754 
611 
511 
512 
643 
816 
871 
793 
684 
630 
625 
672 
794 
897 
786 
395 
-29 
-79 
340 
845 
920 
479 
6 
33 
575 
1100 
1103 
587 
68 
3 
362 
729 
727 
385 
78 
74 
355 
641 
701 
587 
458 
425 
464 
519 
565 
617 
687 
775 
813 
757 
626 
491 
478 
628 
793 
748 
466 
220 
316 
693 
974 
862 
528 
406 
666 
986 
998 
751 
615 
769 
934 
786 
416 
232 
397 
574 
458 
200 
259 
687 
1024 
928 
641 
674 
1070 
1342 
1108 
621 
445 
662 
848 
691 
423 
463 
776 
921 
670 
343 
363 
667 
812 
611 
395 
494 
787 
902 
743 
644 
862 
1206 
1269 
961 
682 
719 
937 
958 
733 
602 
770 
1057 
1103 
875 
681 
807 
1128 
1280 
1104 
764 
534 
545 
726 
960 
1129 
1115 
880 
570 
460 
675 
1026 
1143 
889 
507 
371 
586 
907 
982 
804 
647 
734 
926 
960 
787 
683 
855 
1147 
1202 
883 
546 
596 
1018 
1344 
1233 
846 
635 
801 
1094 
1147 
947 
760 
758 
833 
807 
680 
645 
816 
1032 
1048 
836 
656 
763 
1114 
1314 
1119 
663 
389 
571 
1001 
1207 
988 
626 
515 
709 
943 
990 
876 
792 
807 
854 
874 
904 
950 
967 
950 
973 
1058 
1100 
1016 
889 
875 
989 
1038 
872 
634 
573 
715 
868 
892 
855 
897 
1013 
1043 
886 
693 
680 
889 
1103 
1060 
772 
523 
573 
894 
1215 
1290 
1153 
1029 
1059 
1164 
1194 
1106 
960 
789 
610 
495 
526 
693 
817 
768 
679 
786 
1104 
1358 
1300 
1057 
939 
1028 
1137 
1047 
854 
807 
904 
905 
716 
576 
730 
1047 
1139 
858 
538 
595 
1004 
1334 
1304 
1112 
1118 
1339 
1432 
1173 
775 
611 
756 
956 
966 
836 
777 
859 
995 
1060 
1049 
1042 
1068 
1110 
1113 
1019 
877 
807 
938 
1199 
1373 
1287 
1006 
840 
965 
1221 
1295 
1120 
900 
875 
1028 
1127 
1058 
938 
952 
1096 
1174 
1032 
731 
520 
587 
863 
1088 
1028 
742 
510 
581 
874 
1089 
1038 
823 
706 
740 
770 
683 
592 
652 
847 
947 
833 
635 
604 
771 
958 
975 
870 
792 
784 
778 
710 
648 
683 
810 
895 
850 
729 
674 
763 
920 
969 
861 
691 
643 
813 
1098 
1321 
1501 
1809 
2386 
3152 
3837 
4353 
4803 
5279 
5646 
5638 
5185 
4465 
3668 
2863 
2041 
1212 
447 
-177 
-621 
-843 
-833 
-693 
-578 
-564 
-553 
-455 
-324 
-277 
-326 
-365 
-325 
-294 
-324 
-332 
-161 
160 
418 
417 
254 
197 
380 
696 
886 
767 
455 
225 
304 
616 
849 
742 
414 
202 
314 
627 
851 
889 
857 
831 
757 
618 
560 
668 
799 
737 
515 
403 
590 
927 
1139 
1116 
1023 
990 
990 
983 
982 
1008 
956 
751 
548 
578 
854 
1044 
875 
524 
448 
786 
1180 
1176 
773 
419 
485 
877 
1201 
1183 
923 
779 
924 
1213 
1349 
1191 
922 
847 
1078 
1357 
1326 
980 
738 
940 
1440 
1739 
1538 
1096 
909 
1150 
1524 
1650 
1464 
1211 
1108 
1165 
1274 
1368 
1471 
1563 
1569 
1462 
1341 
1318 
1420 
1567 
1650 
1604 
1447 
1360 
1486 
1758 
1924 
1797 
1505 
1366 
1522 
1774 
1817 
1615 
1435 
1463 
1575 
1543 
1383 
1285 
1336 
1371 
1217 
958 
847 
1004 
1226 
1239 
996 
705 
609 
733 
926 
1020 
970 
802 
576 
409 
369 
456 
557 
553 
431 
283 
211 
282 
460 
587 
538 
333 
219 
405 
781 
951 
664 
176 
40 
422 
839 
702 
59 
-407 
-230 
339 
644 
459 
184 
229 
528 
696 
582 
428 
478 
649 
644 
442 
250 
290 
524 
739 
751 
574 
391 
388 
595 
771 
694 
411 
256 
461 
819 
914 
635 
354 
441 
790 
932 
666 
311 
310 
644 
885 
750 
407 
266 
453 
723 
821 
719 
588 
565 
661 
757 
780 
707 
610 
549 
541 
527 
499 
535 
671 
824 
840 
707 
637 
777 
972 
935 
657 
446 
535 
756 
761 
518 
341 
498 
823 
966 
851 
744 
817 
929 
873 
708 
670 
843 
1008 
947 
758 
706 
851 
1003 
1007 
898 
823 
787 
719 
674 
788 
1008 
1112 
933 
636 
584 
890 
1222 
1187 
810 
488 
537 
863 
1101 
987 
687 
529 
645 
868 
951 
853 
745 
753 
831 
831 
780 
818 
976 
1051 
885 
609 
509 
702 
971 
1044 
937 
884 
996 
1114 
1013 
786 
721 
895 
1038 
878 
514 
332 
569 
1004 
1177 
921 
555 
488 
784 
1069 
1008 
669 
452 
604 
938 
1126 
1065 
919 
870 
885 
879 
891 
975 
1043 
933 
671 
542 
731 
1051 
1146 
886 
585 
520 
659 
762 
713 
658 
762 
935 
1000 
916 
812 
815 
906 
979 
960 
855 
694 
559 
571 
766 
969 
1005 
930 
967 
1131 
1171 
923 
618 
673 
1074 
1288 
909 
273 
135 
712 
1373 
1387 
740 
209 
401 
1046 
1432 
1252 
827 
661 
812 
1016 
1073 
1011 
946 
888 
811 
756 
788 
882 
950 
921 
900 
981 
1100 
1142 
1046 
874 
766 
809 
944 
1036 
967 
768 
656 
765 
1018 
1106 
830 
402 
260 
516 
875 
952 
748 
632 
838 
1154 
1217 
1025 
873 
952 
1113 
1104 
965 
949 
1145 
1337 
1296 
1077 
940 
1044 
1225 
1261 
1085 
845 
738 
834 
1052 
1243 
1309 
1210 
1040 
941 
979 
1097 
1196 
1174 
1078 
977 
935 
1002 
1133 
1149 
945 
609 
371 
390 
537 
575 
498 
545 
869 
1264 
1345 
1069 
806 
889 
1174 
1236 
873 
410 
259 
447 
674 
708 
649 
688 
842 
942 
854 
722 
740 
899 
975 
821 
578 
505 
697 
960 
1051 
942 
842 
912 
1047 
1052 
919 
800 
797 
813 
788 
884 
1307 
2027 
2754 
3314 
3869 
4658 
5574 
6177 
6162 
5659 
5003 
4335 
3552 
2595 
1626 
851 
260 
-229 
-625 
-801 
-743 
-625 
-600 
-653 
-672 
-617 
-600 
-647 
-609 
-373 
-62 
36 
-129 
-271 
-111 
247 
441 
313 
107 
148 
405 
561 
447 
268 
336 
662 
938 
888 
564 
264 
228 
437 
676 
687 
402 
80 
52 
395 
844 
1038 
889 
710 
783 
1046 
1171 
979 
663 
511 
630 
807 
802 
629 
513 
658 
1011 
1293 
1284 
1038 
793 
760 
906 
1004 
927 
772 
719 
791 
872 
880 
868 
907 
956 
914 
786 
759 
957 
1247 
1334 
1110 
785 
695 
930 
1206 
1178 
872 
679 
845 
1239 
1465 
1341 
1075 
995 
1183 
1429 
1456 
1252 
1046 
1062 
1284 
1548 
1677 
1624 
1512 
1491 
1588 
1710 
1707 
1538 
1325 
1249 
1381 
1616 
1771 
1727 
1623 
1668 
1896 
2072 
1934 
1517 
1190 
1215 
1484 
1658 
1530 
1266 
1161 
1319 
1543 
1603 
1478 
1317 
1249 
1275 
1288 
1258 
1190 
1138 
1128 
1122 
1063 
940 
793 
681 
601 
535 
504 
544 
619 
636 
575 
490 
484 
571 
646 
557 
307 
47 
-16 
113 
263 
250 
86 
-12 
138 
460 
656 
557 
331 
259 
410 
615 
648 
497 
303 
199 
208 
298 
413 
473 
437 
374 
384 
472 
528 
453 
329 
284 
326 
340 
282 
268 
386 
529 
544 
426 
367 
451 
551 
557 
477 
441 
459 
445 
372 
356 
483 
617 
561 
356 
235 
372 
641 
787 
713 
538 
436 
482 
596 
663 
604 
468 
378 
395 
502 
591 
610 
618 
675 
762 
795 
753 
741 
795 
867 
904 
895 
929 
968 
926 
823 
773 
831 
863 
687 
387 
264 
565 
1071 
1299 
1049 
666 
615 
973 
1272 
1114 
610 
242 
295 
616 
864 
889 
824 
828 
907 
990 
1053 
1092 
1026 
834 
677 
706 
880 
972 
857 
697 
726 
916 
1013 
896 
703 
652 
729 
754 
653 
569 
658 
842 
906 
826 
743 
807 
965 
1055 
1019 
915 
820 
758 
747 
827 
953 
1010 
899 
720 
688 
899 
1146 
1173 
972 
749 
683 
700 
698 
726 
882 
1071 
1046 
788 
600 
765 
1132 
1236 
880 
414 
346 
749 
1157 
1181 
920 
774 
937 
1217 
1295 
1104 
845 
720 
771 
891 
930 
831 
664 
579 
661 
813 
859 
743 
646 
690 
846 
924 
857 
784 
888 
1113 
1241 
1174 
1020 
947 
978 
1037 
1077 
1113 
1111 
1032 
898 
837 
933 
1075 
1056 
854 
648 
618 
766 
901 
894 
785 
699 
725 
837 
958 
1023 
1016 
974 
944 
996 
1047 
1003 
829 
680 
690 
843 
933 
827 
654 
658 
890 
1090 
1035 
811 
733 
901 
1125 
1137 
920 
726 
757 
976 
1196 
1241 
1077 
843 
727 
840 
1081 
1228 
1162 
987 
904 
967 
1069 
1092 
1067 
1068 
1032 
912 
829 
971 
1295 
1487 
1322 
981 
860 
1059 
1289 
1229 
952 
755 
862 
1117 
1254 
1201 
1085 
1077 
1235 
1446 
1473 
1198 
769 
564 
805 
1237 
1385 
1061 
602 
492 
777 
1063 
1026 
741 
534 
565 
715 
813 
910 
1045 
1066 
855 
552 
447 
621 
795 
692 
402 
337 
676 
1146 
1315 
1064 
693 
598 
848 
1118 
1086 
716 
299 
192 
469 
916 
1199 
1181 
998 
837 
755 
714 
672 
640 
654 
733 
890 
1215 
1729 
2398 
3155 
3937 
4704 
5390 
5877 
6076 
6010 
5733 
5240 
4431 
3329 
2139 
1117 
386 
-148 
-601 
-944 
-1080 
-952 
-668 
-453 
-462 
-635 
-775 
-732 
-546 
-414 
-445 
-555 
-533 
-299 
47 
324 
474 
499 
393 
138 
-147 
-208 
78 
483 
602 
324 
19 
177 
755 
1217 
1132 
624 
253 
352 
701 
861 
699 
455 
372 
448 
559 
672 
824 
1001 
1056 
914 
736 
728 
873 
946 
792 
545 
480 
634 
792 
753 
582 
536 
713 
900 
875 
669 
545 
648 
855 
960 
941 
894 
923 
968 
925 
860 
862 
919 
942 
891 
870 
941 
1061 
1144 
1189 
1248 
1272 
1189 
1035 
959 
1028 
1143 
1160 
1110 
1178 
1378 
1511 
1399 
1185 
1150 
1396 
1651 
1591 
1237 
997 
1152 
1539 
1755 
1634 
1408 
1417 
1670 
1845 
1732 
1487 
1392 
1514 
1608 
1536 
1427 
1499 
1704 
1789 
1683 
1572 
1659 
1855 
1895 
1698 
1464 
1383 
1380 
1311 
1199 
1219 
1369 
1447 
1294 
1019 
909 
1096 
1357 
1389 
1102 
688 
429 
453 
631 
745 
678 
507 
378 
395 
515 
596 
544 
399 
256 
196 
252 
318 
355 
367 
393 
420 
427 
446 
502 
554 
489 
274 
83 
144 
472 
753 
691 
343 
88 
212 
547 
671 
407 
0 
-178 
-56 
193 
375 
450 
472 
467 
463 
532 
657 
664 
461 
208 
125 
263 
350 
208 
33 
141 
535 
797 
641 
295 
224 
556 
932 
985 
768 
638 
729 
840 
767 
595 
593 
799 
925 
748 
399 
258 
464 
759 
814 
616 
464 
581 
792 
785 
591 
546 
807 
1082 
992 
581 
308 
496 
926 
1125 
948 
681 
661 
869 
1043 
1002 
839 
771 
881 
1068 
1109 
909 
618 
508 
690 
994 
1085 
846 
511 
418 
667 
1020 
1191 
1102 
906 
817 
880 
1006 
1040 
923 
736 
596 
543 
544 
546 
582 
687 
816 
862 
822 
850 
1030 
1233 
1237 
989 
721 
691 
893 
1070 
1009 
719 
458 
450 
659 
875 
906 
776 
681 
740 
889 
992 
980 
914 
890 
861 
786 
727 
749 
834 
836 
695 
564 
660 
951 
1130 
1004 
730 
652 
920 
1291 
1386 
1097 
701 
530 
689 
962 
1026 
777 
421 
266 
457 
788 
946 
855 
706 
725 
892 
995 
968 
943 
1016 
1077 
952 
673 
543 
720 
984 
976 
641 
328 
380 
764 
1110 
1162 
1030 
961 
1021 
1061 
999 
915 
924 
945 
809 
541 
399 
580 
952 
1168 
1059 
797 
672 
739 
855 
846 
727 
611 
573 
648 
844 
1086 
1199 
1071 
808 
731 
976 
1307 
1329 
948 
514 
462 
846 
1260 
1286 
923 
567 
573 
912 
1209 
1170 
863 
585 
557 
722 
863 
852 
765 
715 
762 
896 
1030 
1078 
1008 
888 
861 
971 
1093 
1071 
930 
879 
1030 
1294 
1490 
1511 
1414 
1315 
1264 
1257 
1253 
1216 
1102 
947 
857 
946 
1170 
1337 
1312 
1143 
974 
918 
979 
1082 
1132 
1029 
803 
618 
654 
891 
1095 
1039 
783 
585 
619 
787 
861 
765 
601 
544 
632 
739 
797 
789 
759 
736 
713 
694 
685 
705 
771 
847 
866 
850 
870 
940 
943 
831 
657 
556 
592 
651 
577 
430 
432 
682 
987 
1094 
978 
814 
749 
742 
714 
725 
897 
1193 
1496 
1785 
2310 
3229 
4376 
5361 
5918 
6113 
6136 
6054 
5767 
5148 
4231 
3171 
2092 
1066 
162 
-509 
-903 
-1043 
-1022 
-985 
-981 
-968 
-905 
-774 
-605 
-425 
-289 
-240 
-294 
-379 
-334 
-80 
259 
420 
300 
63 
-1 
162 
404 
541 
527 
444 
409 
476 
629 
779 
767 
521 
222 
193 
532 
948 
1011 
661 
310 
354 
767 
1095 
1006 
636 
374 
403 
606 
737 
704 
600 
535 
523 
534 
562 
607 
682 
782 
909 
1038 
1073 
977 
843 
796 
869 
953 
934 
818 
713 
715 
822 
937 
1012 
989 
911 
876 
962 
1147 
1267 
1206 
1067 
1072 
1246 
1378 
1217 
861 
679 
877 
1225 
1312 
1054 
782 
835 
1142 
1363 
1319 
1188 
1208 
1367 
1441 
1394 
1406 
1596 
1773 
1663 
1307 
1108 
1330 
1767 
1914 
1616 
1227 
1215 
1607 
1991 
2011 
1760 
1587 
1655 
1788 
1752 
1565 
1424 
1449 
1530 
1481 
1326 
1259 
1428 
1674 
1695 
1404 
1063 
998 
1242 
1450 
1329 
987 
793 
916 
1145 
1158 
940 
738 
763 
901 
901 
741 
621 
671 
787 
752 
563 
356 
302 
377 
439 
383 
233 
126 
166 
311 
407 
317 
129 
91 
324 
601 
519 
52 
-342 
-217 
310 
655 
435 
-74 
-245 
106 
521 
529 
215 
24 
174 
432 
439 
256 
178 
319 
485 
441 
322 
345 
499 
554 
375 
152 
187 
456 
627 
464 
128 
0 
237 
644 
876 
826 
616 
450 
435 
547 
683 
701 
549 
362 
315 
447 
616 
671 
623 
573 
542 
537 
558 
629 
696 
646 
506 
510 
816 
1218 
1257 
803 
282 
214 
632 
1007 
899 
423 
89 
224 
656 
1001 
1046 
861 
670 
622 
722 
828 
803 
642 
492 
515 
689 
797 
768 
759 
928 
1184 
1233 
937 
560 
460 
666 
853 
733 
419 
284 
514 
886 
1065 
984 
825 
777 
839 
893 
900 
875 
822 
707 
552 
480 
577 
772 
855 
738 
533 
470 
625 
868 
1004 
956 
811 
722 
753 
871 
1004 
1096 
1055 
846 
605 
583 
866 
1225 
1292 
966 
581 
560 
890 
1134 
935 
470 
214 
388 
722 
829 
681 
542 
600 
764 
806 
731 
683 
720 
723 
615 
514 
568 
778 
926 
860 
720 
741 
970 
1181 
1156 
948 
808 
862 
972 
904 
625 
381 
429 
729 
995 
940 
634 
423 
614 
1064 
1312 
1109 
661 
418 
563 
819 
855 
680 
596 
759 
976 
1006 
882 
870 
1045 
1174 
1039 
693 
432 
449 
657 
836 
827 
654 
497 
563 
882 
1226 
1259 
912 
554 
593 
997 
1288 
1094 
629 
416 
650 
1008 
1106 
922 
770 
831 
962 
936 
770 
699 
848 
1039 
1055 
894 
788 
931 
1194 
1314 
1191 
993 
950 
1069 
1150 
1067 
937 
971 
1164 
1333 
1316 
1149 
991 
940 
1023 
1176 
1297 
1261 
1062 
876 
937 
1238 
1528 
1527 
1235 
928 
829 
921 
1032 
1065 
1018 
907 
778 
734 
823 
962 
1016 
953 
850 
823 
831 
824 
813 
849 
912 
934 
869 
783 
745 
725 
694 
665 
693 
739 
767 
823 
1000 
1202 
1195 
924 
641 
660 
910 
996 
719 
341 
294 
653 
1053 
1128 
947 
863 
1033 
1235 
1141 
786 
506 
559 
845 
1083 
1180 
1344 
1865 
2782 
3810 
4628 
5180 
5616 
6046 
6339 
6253 
5674 
4759 
3771 
2857 
2008 
1147 
338 
-271 
-611 
-755 
-830 
-870 
-859 
-833 
-866 
-980 
-1038 
-920 
-634 
-365 
-275 
-300 
-264 
-53 
240 
410 
349 
132 
-23 
62 
347 
599 
570 
349 
248 
444 
739 
798 
558 
294 
247 
315 
314 
271 
395 
724 
938 
750 
333 
191 
551 
1052 
1201 
896 
562 
587 
892 
1142 
1147 
1004 
860 
751 
680 
707 
879 
1055 
1031 
843 
757 
964 
1228 
1197 
854 
593 
728 
1071 
1168 
831 
453 
552 
1122 
1599 
1508 
1029 
733 
928 
1303 
1370 
1043 
728 
812 
1195 
1495 
1484 
1319 
1303 
1488 
1658 
1591 
1325 
1089 
1017 
1065 
1111 
1095 
1103 
1257 
1551 
1837 
1882 
1678 
1483 
1552 
1797 
1865 
1595 
1201 
1136 
1533 
1984 
2020 
1680 
1437 
1628 
2027 
2128 
1750 
1293 
1296 
1763 
2174 
2054 
1536 
1193 
1352 
1774 
1936 
1646 
1204 
987 
1051 
1177 
1179 
1087 
1020 
972 
915 
840 
800 
841 
848 
801 
731 
757 
821 
777 
635 
536 
550 
533 
340 
81 
66 
390 
745 
765 
480 
269 
379 
585 
526 
202 
-52 
16 
246 
317 
195 
149 
314 
494 
428 
174 
21 
87 
223 
257 
196 
217 
271 
261 
213 
313 
613 
857 
796 
480 
246 
266 
401 
424 
348 
332 
382 
333 
138 
18 
176 
498 
656 
562 
448 
540 
746 
801 
635 
483 
524 
644 
645 
536 
520 
686 
879 
910 
754 
558 
453 
454 
550 
673 
721 
634 
499 
470 
613 
822 
925 
905 
875 
904 
918 
865 
815 
891 
994 
947 
731 
566 
654 
913 
1064 
983 
807 
729 
756 
816 
886 
992 
1088 
1010 
708 
404 
383 
629 
867 
849 
627 
504 
622 
841 
928 
844 
762 
834 
953 
905 
640 
418 
496 
833 
1069 
951 
592 
381 
570 
998 
1241 
1059 
652 
404 
472 
724 
903 
925 
851 
746 
648 
641 
760 
926 
949 
725 
403 
317 
526 
773 
800 
664 
620 
758 
908 
894 
809 
855 
1015 
1057 
873 
661 
675 
879 
996 
912 
792 
814 
922 
933 
816 
764 
881 
1029 
1008 
821 
680 
720 
848 
872 
732 
568 
535 
624 
692 
634 
531 
518 
630 
797 
923 
955 
910 
848 
845 
955 
1106 
1136 
979 
744 
660 
830 
1062 
1131 
1012 
890 
891 
968 
995 
967 
972 
970 
855 
629 
527 
672 
920 
991 
820 
641 
666 
818 
912 
867 
789 
767 
772 
776 
791 
855 
917 
886 
803 
821 
970 
1058 
944 
741 
707 
967 
1290 
1340 
1082 
845 
911 
1225 
1436 
1332 
1099 
1035 
1197 
1330 
1234 
988 
879 
1029 
1237 
1237 
1010 
806 
863 
1133 
1348 
1330 
1136 
1001 
1061 
1196 
1225 
1043 
774 
646 
748 
896 
859 
652 
519 
654 
928 
1021 
804 
525 
467 
639 
808 
779 
653 
610 
691 
772 
786 
762 
756 
757 
746 
737 
733 
693 
602 
518 
570 
747 
874 
786 
595 
552 
750 
980 
1017 
837 
703 
798 
1022 
1113 
970 
755 
672 
729 
799 
865 
1092 
1609 
2336 
3086 
3828 
4664 
5590 
6339 
6620 
6432 
6019 
5528 
4824 
3746 
2437 
1233 
356 
-302 
-896 
-1375 
-1542 
-1383 
-1127 
-999 
-1033 
-1054 
-874 
-513 
-182 
-89 
-234 
-408 
-383 
-145 
78 
68 
-128 
-261 
-202 
-46 
22 
-3 
36 
223 
451 
551 
498 
432 
446 
533 
608 
618 
576 
529 
518 
558 
626 
669 
675 
725 
855 
987 
951 
719 
492 
497 
699 
799 
603 
286 
191 
447 
823 
1027 
999 
923 
945 
1018 
1020 
943 
882 
832 
779 
715 
704 
782 
861 
872 
877 
973 
1112 
1118 
964 
902 
1137 
1494 
1555 
1190 
750 
696 
1046 
1350 
1216 
787 
558 
781 
1212 
1428 
1286 
1009 
945 
1204 
1559 
1680 
1461 
1114 
1021 
1303 
1735 
1861 
1540 
1106 
1006 
1325 
1693 
1725 
1445 
1258 
1427 
1780 
1920 
1719 
1480 
1513 
1728 
1767 
1468 
1078 
990 
1298 
1651 
1716 
1523 
1354 
1370 
1454 
1432 
1298 
1214 
1274 
1360 
1330 
1235 
1160 
1133 
1109 
1062 
1038 
1043 
1010 
867 
699 
663 
788 
894 
827 
630 
481 
466 
486 
438 
320 
187 
48 
-63 
-90 
7 
163 
225 
169 
135 
242 
384 
386 
236 
95 
112 
204 
196 
53 
-13 
120 
288 
310 
183 
75 
92 
201 
315 
385 
397 
307 
136 
86 
341 
784 
1009 
740 
205 
-68 
181 
635 
784 
478 
43 
-137 
7 
264 
472 
609 
662 
587 
448 
419 
632 
921 
983 
703 
330 
193 
313 
471 
525 
566 
714 
874 
887 
775 
733 
852 
956 
816 
479 
273 
382 
611 
697 
635 
693 
984 
1268 
1222 
862 
546 
561 
812 
963 
819 
538 
431 
635 
976 
1153 
1029 
740 
538 
545 
625 
612 
524 
528 
697 
846 
790 
615 
616 
886 
1122 
1007 
657 
478 
667 
962 
974 
726 
569 
739 
1051 
1153 
991 
768 
700 
756 
789 
748 
666 
595 
577 
646 
794 
913 
922 
854 
803 
828 
852 
800 
729 
703 
720 
661 
503 
404 
518 
748 
873 
777 
600 
589 
831 
1131 
1178 
918 
583 
496 
730 
991 
988 
732 
539 
656 
943 
1082 
969 
761 
686 
755 
836 
818 
731 
690 
722 
801 
886 
918 
851 
765 
761 
869 
957 
905 
779 
720 
780 
863 
881 
883 
905 
874 
688 
492 
555 
892 
1160 
1069 
784 
730 
1021 
1315 
1273 
973 
807 
905 
1011 
902 
711 
743 
962 
1075 
883 
571 
441 
572 
705 
684 
588 
597 
743 
892 
949 
931 
926 
946 
936 
866 
766 
719 
754 
824 
873 
878 
855 
854 
902 
1027 
1200 
1319 
1316 
1215 
1154 
1241 
1438 
1540 
1382 
1062 
820 
824 
1002 
1164 
1158 
1048 
949 
942 
1049 
1183 
1235 
1138 
935 
730 
605 
549 
514 
528 
598 
663 
653 
584 
587 
739 
929 
989 
873 
717 
664 
692 
734 
763 
815 
821 
708 
501 
361 
418 
614 
730 
637 
458 
412 
584 
838 
964 
912 
805 
761 
804 
835 
789 
713 
696 
742 
782 
737 
638 
596 
673 
828 
924 
910 
893 
1034 
1448 
2090 
2836 
3617 
4453 
5330 
6122 
6612 
6683 
6366 
5774 
4981 
3981 
2783 
1508 
398 
-349 
-720 
-901 
-1071 
-1224 
-1210 
-922 
-528 
-367 
-531 
-765 
-756 
-452 
-159 
-167 
-350 
-351 
-15 
411 
533 
264 
-83 
-143 
117 
406 
459 
320 
264 
470 
794 
943 
786 
510 
404 
531 
645 
537 
340 
355 
663 
960 
975 
766 
649 
784 
982 
953 
722 
599 
746 
956 
953 
716 
538 
682 
983 
1086 
852 
519 
437 
679 
978 
1031 
820 
605 
642 
921 
1225 
1326 
1193 
981 
894 
1007 
1218 
1340 
1252 
1025 
870 
910 
1076 
1149 
993 
743 
673 
898 
1253 
1402 
1233 
965 
924 
1208 
1534 
1600 
1361 
1112 
1126 
1378 
1592 
1618 
1534 
1501 
1525 
1507 
1439 
1464 
1643 
1808 
1757 
1526 
1401 
1553 
1804 
1851 
1650 
1479 
1552 
1742 
1708 
1389 
1102 
1188 
1588 
1868 
1774 
1472 
1337 
1519 
1778 
1816 
1605 
1380 
1297 
1323 
1315 
1227 
1124 
1045 
976 
922 
916 
1001 
1101 
1118 
1046 
955 
901 
884 
862 
830 
809 
754 
636 
492 
419 
508 
670 
721 
565 
309 
152 
161 
243 
290 
281 
264 
219 
133 
74 
194 
489 
695 
590 
209 
-102 
-87 
166 
354 
299 
122 
25 
75 
229 
446 
658 
705 
495 
173 
100 
413 
795 
797 
375 
27 
185 
689 
965 
707 
215 
36 
312 
685 
758 
522 
322 
442 
768 
955 
853 
613 
524 
653 
769 
653 
389 
326 
604 
940 
937 
584 
327 
522 
1006 
1200 
881 
464 
491 
961 
1324 
1187 
785 
658 
921 
1148 
961 
575 
445 
693 
965 
902 
612 
488 
671 
936 
1006 
876 
750 
757 
829 
862 
837 
809 
779 
748 
741 
778 
821 
784 
670 
592 
693 
904 
1017 
905 
658 
529 
639 
824 
834 
622 
428 
513 
852 
1140 
1134 
930 
830 
936 
1058 
948 
653 
468 
551 
716 
681 
488 
493 
868 
1329 
1414 
1073 
756 
848 
1199 
1306 
912 
327 
72 
315 
745 
943 
817 
588 
508 
660 
923 
1095 
1018 
738 
447 
358 
510 
733 
815 
772 
732 
786 
883 
921 
889 
886 
948 
977 
879 
701 
584 
656 
877 
1061 
1049 
862 
672 
655 
813 
957 
923 
760 
683 
830 
1073 
1133 
916 
687 
753 
1106 
1370 
1185 
670 
292 
390 
804 
1051 
877 
502 
346 
560 
903 
1033 
924 
813 
878 
1047 
1124 
1039 
915 
897 
980 
1013 
930 
807 
758 
801 
890 
968 
1006 
1015 
1006 
1020 
1056 
1060 
1024 
980 
983 
1054 
1111 
1083 
998 
970 
1073 
1240 
1326 
1263 
1140 
1101 
1199 
1281 
1205 
1012 
903 
1022 
1233 
1293 
1150 
1018 
1086 
1249 
1226 
967 
751 
793 
937 
848 
499 
273 
454 
847 
1008 
770 
483 
498 
755 
903 
768 
537 
497 
651 
775 
752 
671 
649 
686 
684 
651 
673 
753 
793 
699 
560 
561 
757 
944 
902 
647 
452 
512 
725 
866 
823 
712 
678 
739 
786 
792 
786 
839 
955 
1139 
1423 
1826 
2382 
3154 
4137 
5229 
6168 
6688 
6729 
6469 
6018 
5341 
4323 
3070 
1848 
824 
-23 
-736 
-1196 
-1270 
-1047 
-879 
-999 
-1247 
-1233 
-866 
-490 
-465 
-734 
-871 
-657 
-227 
64 
76 
-21 
-25 
29 
0 
-105 
-152 
-115 
-23 
102 
329 
616 
794 
714 
492 
395 
511 
646 
616 
501 
495 
612 
697 
671 
658 
755 
818 
674 
417 
386 
732 
1135 
1177 
827 
543 
655 
1010 
1174 
951 
591 
474 
645 
838 
827 
712 
672 
774 
890 
903 
840 
803 
834 
853 
797 
714 
716 
868 
1099 
1249 
1253 
1174 
1144 
1224 
1332 
1330 
1172 
976 
907 
1012 
1169 
1235 
1180 
1141 
1221 
1375 
1462 
1380 
1182 
1024 
1028 
1182 
1344 
1380 
1274 
1193 
1317 
1646 
1963 
2062 
1888 
1597 
1430 
1523 
1775 
1918 
1770 
1447 
1301 
1547 
1989 
2193 
1939 
1503 
1330 
1520 
1764 
1746 
1484 
1254 
1201 
1244 
1281 
1364 
1547 
1709 
1648 
1386 
1188 
1255 
1452 
1464 
1199 
851 
698 
762 
831 
757 
625 
596 
697 
780 
660 
412 
312 
531 
895 
1012 
716 
297 
165 
392 
653 
609 
323 
124 
206 
401 
425 
259 
106 
138 
284 
354 
282 
141 
31 
24 
104 
179 
221 
168 
82 
60 
125 
192 
203 
213 
307 
447 
505 
439 
411 
573 
825 
901 
679 
359 
219 
311 
454 
483 
440 
443 
534 
605 
552 
465 
503 
663 
781 
673 
433 
356 
562 
883 
999 
796 
573 
655 
987 
1185 
1022 
641 
444 
603 
894 
1004 
864 
668 
609 
701 
804 
800 
735 
695 
706 
716 
665 
588 
593 
677 
769 
785 
716 
624 
599 
662 
820 
1016 
1131 
1062 
832 
658 
729 
960 
1055 
881 
629 
575 
790 
1014 
1002 
838 
761 
867 
1020 
1032 
867 
670 
630 
774 
991 
1134 
1128 
1018 
908 
857 
862 
868 
828 
720 
569 
457 
508 
728 
963 
1009 
855 
733 
814 
1004 
1031 
798 
507 
428 
575 
725 
717 
658 
745 
987 
1190 
1189 
1041 
952 
992 
1034 
916 
670 
489 
536 
775 
999 
1047 
943 
832 
848 
958 
1023 
941 
740 
590 
628 
779 
870 
810 
723 
789 
998 
1150 
1084 
872 
696 
647 
684 
747 
842 
953 
984 
854 
691 
728 
997 
1226 
1127 
757 
466 
505 
772 
969 
939 
779 
639 
558 
530 
581 
698 
798 
802 
729 
707 
778 
863 
859 
785 
708 
633 
547 
453 
424 
486 
550 
547 
512 
516 
538 
515 
471 
508 
660 
791 
757 
610 
554 
684 
826 
798 
628 
519 
557 
588 
444 
192 
107 
324 
614 
660 
410 
168 
227 
554 
784 
701 
466 
342 
390 
367 
147 
-51 
-6 
185 
209 
-34 
-259 
-156 
201 
466 
468 
355 
328 
376 
344 
275 
291 
394 
418 
251 
95 
162 
425 
543 
319 
-25 
-69 
289 
673 
665 
277 
-4 
171 
643 
928 
753 
354 
143 
233 
440 
541 
525 
472 
392 
283 
240 
376 
665 
937 
1063 
1157 
1510 
2216 
3113 
3979 
4696 
5350 
5958 
6399 
6465 
6081 
5324 
4344 
3222 
1989 
739 
-310 
-966 
-1283 
-1455 
-1604 
-1615 
-1346 
-913 
-608 
-564 
-630 
-594 
-470 
-445 
-576 
-684 
-591 
-360 
-211 
-226 
-272 
-204 
-38 
135 
263 
331 
357 
358 
389 
502 
670 
752 
653 
452 
307 
308 
415 
505 
542 
575 
608 
615 
579 
557 
606 
698 
735 
682 
609 
599 
656 
704 
696 
710 
817 
967 
1057 
1064 
1069 
1110 
1092 
927 
739 
709 
853 
917 
699 
355 
288 
652 
1117 
1240 
948 
582 
513 
747 
992 
1039 
907 
741 
666 
751 
959 
1202 
1261 
1113 
972 
1040 
1245 
1313 
1135 
1022 
1275 
1719 
1867 
1509 
1069 
1136 
1711 
2149 
1917 
1236 
822 
1065 
1607 
1798 
1473 
1052 
1017 
1375 
1718 
1752 
1583 
1493 
1553 
1635 
1586 
1486 
1477 
1596 
1647 
1569 
1463 
1483 
1627 
1690 
1549 
1366 
1376 
1578 
1704 
1541 
1223 
1049 
1122 
1252 
1209 
1001 
848 
864 
949 
913 
730 
540 
484 
560 
604 
524 
330 
151 
119 
267 
422 
457 
352 
258 
290 
362 
317 
175 
141 
333 
557 
497 
128 
-201 
-142 
255 
577 
465 
17 
-338 
-262 
147 
484 
420 
55 
-200 
-77 
272 
467 
335 
29 
-127 
-55 
136 
269 
286 
197 
87 
76 
277 
623 
806 
588 
105 
-178 
87 
668 
976 
678 
86 
-187 
143 
715 
945 
655 
196 
54 
302 
626 
701 
547 
383 
360 
450 
571 
684 
740 
671 
471 
306 
332 
542 
709 
699 
605 
609 
756 
847 
800 
709 
646 
605 
510 
428 
495 
706 
842 
735 
508 
458 
716 
1061 
1177 
987 
743 
682 
818 
934 
859 
639 
463 
464 
594 
703 
726 
710 
738 
807 
793 
668 
523 
501 
623 
732 
723 
620 
583 
697 
822 
830 
749 
730 
833 
924 
883 
743 
641 
644 
696 
750 
822 
894 
888 
747 
579 
572 
746 
879 
768 
501 
353 
431 
600 
681 
653 
664 
752 
845 
885 
902 
952 
1010 
1000 
867 
699 
607 
600 
637 
670 
714 
805 
946 
1042 
977 
737 
478 
441 
618 
820 
826 
676 
613 
788 
1073 
1203 
1084 
856 
714 
711 
742 
704 
634 
610 
659 
725 
768 
803 
873 
959 
982 
921 
810 
762 
821 
901 
922 
886 
882 
942 
1006 
1027 
981 
913 
831 
768 
735 
752 
808 
906 
1052 
1228 
1378 
1432 
1373 
1282 
1258 
1291 
1284 
1179 
1005 
861 
838 
933 
1076 
1166 
1136 
1055 
1031 
1087 
1140 
1061 
882 
778 
859 
1040 
1119 
1006 
832 
777 
848 
883 
760 
515 
318 
305 
443 
621 
718 
720 
713 
784 
914 
1003 
985 
881 
764 
664 
572 
498 
492 
562 
611 
552 
454 
482 
705 
922 
931 
763 
637 
708 
856 
883 
795 
754 
771 
721 
542 
397 
489 
764 
935 
848 
669 
660 
850 
1072 
1252 
1487 
1851 
2266 
2645 
3084 
3792 
4709 
5470 
5731 
5531 
5186 
4860 
4362 
3434 
2181 
1008 
215 
-278 
-760 
-1307 
-1644 
-1503 
-1003 
-626 
-634 
-903 
-1054 
-885 
-541 
-312 
-296 
-344 
-332 
-229 
-48 
177 
395 
501 
418 
211 
61 
119 
342 
549 
571 
454 
389 
513 
766 
933 
884 
718 
646 
777 
946 
959 
832 
745 
814 
963 
1007 
859 
695 
691 
857 
1007 
957 
762 
614 
672 
860 
900 
691 
441 
466 
855 
1270 
1332 
1038 
750 
788 
1090 
1311 
1255 
1043 
889 
875 
958 
1065 
1191 
1292 
1284 
1197 
1114 
1114 
1159 
1162 
1108 
1132 
1216 
1238 
1108 
950 
1032 
1370 
1672 
1635 
1307 
1044 
1128 
1463 
1728 
1718 
1545 
1447 
1508 
1597 
1549 
1334 
1110 
1080 
1284 
1538 
1619 
1482 
1383 
1535 
1833 
1977 
1822 
1575 
1493 
1577 
1596 
1529 
1547 
1757 
1888 
1657 
1259 
1191 
1607 
2026 
1901 
1351 
1044 
1330 
1810 
1867 
1503 
1286 
1558 
1932 
1810 
1163 
602 
625 
1031 
1230 
929 
414 
202 
409 
733 
821 
641 
423 
400 
532 
588 
462 
296 
290 
434 
522 
402 
146 
-9 
55 
236 
354 
336 
241 
167 
167 
282 
458 
553 
464 
249 
86 
111 
260 
328 
231 
85 
106 
331 
575 
641 
511 
335 
268 
355 
474 
510 
458 
385 
375 
466 
587 
640 
578 
474 
422 
457 
526 
532 
465 
414 
492 
670 
786 
715 
497 
339 
410 
660 
827 
748 
539 
461 
601 
747 
702 
517 
453 
561 
641 
513 
322 
365 
701 
1016 
1045 
855 
737 
831 
1011 
1116 
1118 
1067 
968 
791 
686 
781 
983 
1003 
711 
377 
337 
603 
822 
738 
490 
484 
803 
1162 
1227 
975 
683 
552 
578 
605 
605 
624 
695 
743 
736 
738 
853 
1054 
1176 
1052 
747 
541 
588 
788 
900 
793 
626 
613 
818 
1088 
1188 
1051 
769 
520 
468 
628 
852 
932 
735 
450 
376 
627 
945 
995 
710 
334 
176 
294 
562 
800 
857 
654 
289 
82 
292 
774 
1057 
842 
380 
254 
641 
1068 
1024 
544 
147 
176 
434 
548 
395 
214 
209 
298 
378 
510 
806 
1133 
1139 
727 
251 
206 
599 
939 
808 
321 
0 
182 
655 
964 
901 
653 
512 
576 
720 
817 
813 
718 
594 
527 
567 
635 
638 
614 
670 
847 
1014 
1021 
916 
883 
986 
1066 
996 
843 
828 
976 
1064 
904 
621 
554 
836 
1191 
1217 
851 
439 
404 
774 
1131 
1048 
559 
153 
236 
649 
913 
765 
429 
299 
437 
585 
526 
375 
359 
446 
399 
197 
89 
295 
656 
819 
626 
387 
450 
787 
1011 
870 
543 
397 
564 
775 
743 
482 
293 
377 
616 
744 
676 
580 
614 
766 
891 
863 
681 
466 
341 
405 
624 
870 
991 
1005 
1169 
1760 
2743 
3756 
4406 
4614 
4608 
4636 
4712 
4596 
4046 
3098 
2010 
1057 
378 
-102 
-495 
-868 
-1206 
-1445 
-1543 
-1467 
-1237 
-980 
-831 
-812 
-835 
-784 
-642 
-472 
-328 
-182 
-57 
15 
35 
77 
192 
333 
410 
427 
447 
491 
479 
379 
389 
590 
815 
815 
564 
386 
533 
825 
912 
744 
649 
832 
1046 
942 
621 
537 
885 
1258 
1157 
659 
334 
536 
952 
1054 
745 
467 
540 
786 
843 
693 
625 
821 
1045 
1011 
759 
644 
855 
1096 
1077 
862 
769 
920 
1077 
1007 
788 
714 
866 
1011 
990 
914 
1011 
1224 
1264 
1059 
909 
1083 
1433 
1523 
1190 
793 
759 
1087 
1357 
1220 
854 
684 
879 
1217 
1349 
1239 
1105 
1127 
1247 
1303 
1299 
1347 
1515 
1692 
1752 
1688 
1593 
1565 
1559 
1508 
1442 
1443 
1559 
1699 
1752 
1705 
1658 
1689 
1791 
1860 
1813 
1655 
1428 
1227 
1139 
1201 
1362 
1448 
1321 
1087 
985 
1133 
1361 
1378 
1082 
689 
495 
539 
645 
623 
492 
411 
475 
618 
717 
682 
536 
364 
276 
318 
430 
432 
225 
-93 
-271 
-149 
169 
380 
306 
106 
38 
190 
366 
353 
154 
14 
66 
180 
203 
141 
151 
295 
449 
466 
369 
262 
238 
279 
308 
242 
56 
-154 
-174 
93 
425 
473 
204 
0 
225 
696 
842 
396 
-187 
-267 
223 
676 
550 
20 
-270 
27 
577 
834 
608 
223 
61 
189 
412 
525 
500 
411 
359 
363 
418 
520 
622 
703 
703 
639 
577 
549 
544 
530 
503 
487 
497 
523 
552 
582 
621 
647 
675 
748 
873 
943 
852 
644 
503 
583 
774 
829 
635 
375 
305 
464 
645 
648 
511 
397 
420 
584 
749 
830 
788 
705 
724 
897 
1065 
990 
663 
396 
465 
758 
876 
651 
352 
334 
601 
836 
827 
687 
684 
858 
1014 
971 
775 
670 
758 
908 
911 
711 
475 
410 
550 
721 
722 
593 
510 
584 
726 
748 
629 
552 
653 
853 
910 
699 
413 
365 
652 
990 
1006 
668 
354 
442 
847 
1127 
1003 
664 
528 
715 
945 
953 
745 
553 
498 
491 
465 
457 
515 
579 
568 
548 
622 
764 
879 
883 
838 
876 
995 
1040 
899 
644 
495 
572 
779 
865 
715 
486 
468 
779 
1164 
1298 
1105 
849 
807 
970 
1074 
945 
687 
569 
703 
927 
1036 
1028 
1017 
1075 
1159 
1204 
1215 
1219 
1200 
1102 
945 
863 
912 
1019 
1077 
1047 
983 
894 
750 
603 
604 
806 
1044 
1063 
825 
609 
666 
922 
1095 
1015 
799 
685 
714 
812 
858 
864 
904 
980 
954 
776 
550 
481 
694 
1023 
1116 
829 
467 
519 
1051 
1580 
1574 
1085 
687 
784 
1163 
1330 
1100 
759 
643 
718 
773 
754 
788 
936 
1101 
1183 
1259 
1481 
1964 
2631 
3302 
3891 
4388 
4791 
5032 
5084 
4923 
4542 
3960 
3175 
2213 
1248 
519 
107 
-169 
-528 
-930 
-1066 
-796 
-417 
-383 
-736 
-1021 
-843 
-380 
-149 
-315 
-522 
-373 
65 
407 
451 
383 
385 
426 
314 
123 
77 
257 
502 
623 
652 
700 
745 
692 
593 
632 
891 
1110 
1001 
689 
618 
998 
1470 
1474 
970 
489 
508 
909 
1154 
990 
701 
661 
873 
1065 
1062 
937 
864 
876 
914 
952 
973 
944 
866 
835 
908 
1005 
1002 
889 
847 
982 
1125 
1018 
698 
501 
686 
1089 
1323 
1201 
914 
774 
968 
1310 
1506 
1371 
1048 
864 
1023 
1361 
1477 
1208 
836 
786 
1169 
1576 
1659 
1504 
1460 
1641 
1761 
1562 
1205 
1047 
1176 
1301 
1232 
1119 
1233 
1583 
1867 
1825 
1602 
1530 
1710 
1879 
1760 
1417 
1202 
1312 
1594 
1687 
1479 
1257 
1387 
1834 
2125 
1891 
1361 
1119 
1455 
1978 
2105 
1680 
1122 
906 
1088 
1345 
1413 
1281 
1070 
870 
755 
816 
993 
1078 
916 
583 
327 
272 
315 
345 
377 
451 
491 
420 
314 
341 
500 
627 
595 
476 
378 
305 
219 
158 
217 
343 
354 
194 
107 
264 
504 
486 
199 
9 
173 
464 
448 
74 
-236 
-133 
199 
313 
112 
-44 
144 
535 
746 
620 
356 
200 
184 
250 
358 
479 
496 
340 
139 
158 
423 
643 
532 
193 
0 
147 
463 
576 
431 
282 
352 
566 
722 
709 
577 
443 
362 
379 
486 
603 
610 
469 
356 
448 
731 
997 
991 
710 
399 
347 
578 
845 
884 
687 
490 
524 
718 
814 
690 
510 
468 
555 
600 
496 
368 
351 
428 
483 
493 
503 
571 
672 
761 
859 
974 
1036 
988 
858 
780 
790 
827 
775 
629 
506 
495 
599 
772 
940 
1024 
972 
813 
691 
698 
787 
790 
594 
289 
149 
289 
532 
613 
487 
392 
566 
891 
1020 
833 
588 
604 
828 
919 
661 
304 
221 
461 
707 
729 
601 
575 
710 
859 
896 
838 
776 
735 
707 
670 
625 
540 
427 
410 
594 
910 
1115 
999 
668 
462 
572 
832 
923 
689 
338 
219 
438 
815 
1060 
1036 
821 
618 
563 
685 
891 
1018 
926 
679 
511 
595 
857 
1060 
1041 
870 
715 
646 
603 
525 
450 
460 
532 
588 
629 
697 
801 
883 
891 
867 
881 
905 
859 
763 
739 
877 
1078 
1159 
1093 
1028 
1046 
1078 
1016 
906 
872 
921 
901 
747 
662 
853 
1205 
1362 
1161 
863 
810 
976 
1008 
712 
337 
250 
461 
644 
595 
450 
453 
615 
727 
668 
549 
529 
606 
663 
658 
646 
645 
616 
558 
544 
671 
844 
840 
626 
414 
435 
680 
881 
858 
688 
589 
626 
678 
678 
674 
732 
812 
803 
724 
717 
801 
841 
722 
527 
423 
453 
479 
405 
339 
466 
824 
1275 
1674 
2073 
2598 
3299 
4119 
4869 
5357 
5515 
5366 
5020 
4566 
3928 
3029 
1952 
955 
248 
-210 
-625 
-1087 
-1393 
-1281 
-787 
-329 
-308 
-697 
-1011 
-843 
-287 
123 
20 
-450 
-788 
-669 
-220 
202 
383 
324 
161 
29 
26 
176 
405 
559 
549 
408 
255 
195 
237 
363 
520 
638 
674 
629 
533 
487 
571 
706 
778 
707 
554 
433 
399 
449 
547 
705 
871 
897 
703 
450 
468 
849 
1245 
1158 
572 
53 
132 
727 
1223 
1148 
655 
289 
381 
776 
1081 
1065 
789 
488 
394 
538 
778 
934 
930 
803 
696 
675 
730 
797 
840 
848 
860 
936 
1040 
1106 
1074 
1002 
1014 
1112 
1197 
1155 
1022 
932 
989 
1157 
1310 
1315 
1177 
1071 
1128 
1295 
1384 
1285 
1168 
1273 
1586 
1784 
1677 
1437 
1374 
1538 
1637 
1461 
1194 
1102 
1211 
1319 
1335 
1400 
1590 
1730 
1625 
1407 
1355 
1508 
1632 
1495 
1227 
1109 
1190 
1260 
1210 
1119 
1124 
1183 
1131 
945 
777 
740 
808 
860 
782 
588 
378 
293 
385 
556 
606 
466 
321 
322 
411 
414 
268 
193 
340 
551 
552 
320 
107 
98 
205 
246 
217 
212 
209 
105 
-79 
-152 
24 
265 
269 
5 
-214 
-98 
295 
666 
713 
495 
234 
167 
310 
428 
366 
163 
58 
152 
292 
306 
270 
429 
761 
896 
597 
162 
116 
469 
626 
191 
-449 
-552 
50 
717 
796 
397 
117 
261 
546 
598 
444 
361 
389 
303 
38 
-90 
157 
593 
742 
431 
75 
145 
628 
1030 
938 
488 
150 
183 
383 
445 
351 
296 
375 
451 
405 
343 
406 
563 
614 
481 
317 
328 
481 
558 
430 
234 
155 
237 
399 
540 
582 
464 
261 
203 
438 
815 
934 
643 
253 
224 
600 
916 
753 
289 
37 
233 
555 
571 
304 
172 
367 
643 
631 
384 
285 
507 
771 
700 
321 
64 
204 
537 
632 
394 
125 
139 
403 
644 
657 
479 
298 
231 
264 
313 
317 
270 
261 
349 
479 
531 
458 
390 
475 
684 
787 
661 
401 
259 
348 
533 
576 
377 
115 
13 
150 
386 
486 
451 
445 
597 
811 
869 
694 
500 
469 
544 
541 
385 
234 
252 
419 
609 
715 
681 
546 
394 
370 
524 
691 
653 
380 
145 
200 
494 
700 
603 
328 
127 
124 
225 
324 
370 
369 
387 
459 
604 
742 
766 
699 
677 
735 
760 
629 
386 
279 
457 
757 
894 
729 
429 
318 
486 
759 
885 
772 
580 
515 
600 
680 
665 
610 
683 
867 
934 
784 
577 
627 
957 
1248 
1152 
714 
380 
486 
904 
1175 
1010 
583 
325 
468 
818 
1031 
921 
632 
474 
561 
730 
737 
532 
297 
230 
319 
435 
471 
437 
393 
356 
323 
379 
543 
700 
723 
580 
417 
395 
525 
646 
641 
568 
503 
494 
522 
544 
519 
442 
347 
344 
495 
702 
775 
677 
556 
585 
713 
751 
615 
432 
382 
450 
446 
332 
274 
404 
658 
822 
839 
919 
1298 
1903 
2548 
3174 
3884 
4702 
5382 
5628 
5464 
5196 
4925 
4403 
3362 
2027 
896 
255 
-128 
-573 
-1033 
-1214 
-1040 
-798 
-777 
-888 
-871 
-676 
-503 
-497 
-581 
-587 
-502 
-409 
-301 
-136 
58 
157 
103 
-13 
-56 
-42 
-45 
-62 
-24 
44 
80 
90 
175 
393 
606 
645 
500 
393 
455 
585 
596 
427 
256 
263 
395 
491 
485 
490 
616 
779 
790 
643 
540 
589 
661 
574 
393 
393 
677 
997 
997 
705 
502 
629 
873 
847 
537 
279 
307 
502 
558 
433 
349 
452 
610 
625 
496 
428 
566 
813 
955 
925 
803 
727 
793 
962 
1085 
1098 
1023 
968 
993 
1052 
1071 
1047 
1035 
998 
911 
867 
990 
1243 
1422 
1389 
1263 
1270 
1405 
1462 
1322 
1164 
1174 
1318 
1355 
1200 
1058 
1162 
1460 
1698 
1722 
1593 
1463 
1416 
1479 
1632 
1749 
1681 
1382 
1085 
1044 
1213 
1313 
1178 
984 
956 
1096 
1198 
1190 
1260 
1507 
1729 
1639 
1259 
930 
921 
1080 
1043 
676 
269 
139 
314 
503 
430 
215 
167 
399 
673 
672 
408 
237 
378 
615 
584 
245 
-49 
2 
270 
377 
192 
1 
49 
231 
270 
96 
-36 
56 
256 
308 
178 
88 
194 
418 
607 
681 
683 
639 
516 
353 
251 
274 
333 
326 
249 
183 
174 
206 
254 
292 
357 
423 
438 
394 
351 
389 
524 
669 
673 
531 
394 
378 
478 
519 
394 
238 
254 
418 
510 
406 
257 
286 
482 
598 
487 
336 
359 
510 
544 
394 
289 
432 
695 
766 
532 
250 
244 
479 
635 
530 
297 
222 
371 
536 
468 
214 
85 
282 
661 
852 
687 
416 
384 
649 
928 
935 
695 
474 
436 
504 
542 
542 
547 
563 
528 
480 
492 
572 
644 
608 
513 
508 
615 
725 
705 
616 
609 
744 
887 
896 
804 
774 
856 
896 
731 
470 
392 
623 
891 
836 
428 
66 
140 
557 
847 
719 
403 
314 
548 
818 
843 
710 
686 
859 
1041 
1015 
850 
724 
700 
729 
735 
732 
677 
489 
237 
164 
437 
840 
999 
787 
501 
506 
780 
972 
846 
590 
501 
606 
648 
491 
333 
410 
684 
845 
706 
457 
395 
590 
825 
876 
752 
636 
661 
757 
818 
837 
852 
884 
871 
756 
592 
521 
630 
796 
857 
738 
539 
452 
538 
680 
751 
749 
722 
699 
634 
570 
604 
767 
940 
910 
654 
440 
499 
772 
963 
861 
615 
508 
609 
735 
746 
681 
676 
753 
798 
738 
651 
672 
785 
872 
850 
751 
680 
757 
947 
1097 
1055 
830 
625 
644 
839 
965 
844 
609 
560 
785 
1085 
1236 
1239 
1280 
1409 
1457 
1300 
1069 
1002 
1138 
1238 
1089 
834 
780 
993 
1198 
1132 
868 
739 
899 
1083 
969 
599 
364 
478 
714 
689 
373 
142 
261 
558 
657 
487 
348 
486 
773 
888 
719 
485 
444 
581 
707 
713 
622 
531 
506 
577 
726 
864 
884 
743 
524 
401 
434 
551 
603 
533 
446 
508 
748 
998 
1044 
861 
634 
593 
747 
894 
828 
539 
256 
204 
435 
788 
1061 
1217 
1412 
1836 
2521 
3319 
4050 
4706 
5348 
5878 
6015 
5575 
4726 
3852 
3179 
2572 
1717 
608 
-414 
-988 
-1066 
-899 
-759 
-733 
-787 
-847 
-863 
-774 
-571 
-375 
-305 
-410 
-550 
-582 
-452 
-226 
-10 
148 
263 
307 
260 
171 
195 
387 
624 
637 
354 
13 
-89 
79 
243 
184 
26 
104 
482 
841 
869 
642 
522 
682 
872 
766 
403 
153 
228 
433 
507 
431 
416 
542 
639 
563 
444 
505 
735 
851 
719 
506 
498 
685 
843 
802 
688 
717 
897 
995 
853 
613 
557 
774 
1003 
931 
585 
307 
381 
712 
934 
864 
702 
729 
945 
1081 
1024 
981 
1158 
1427 
1413 
1026 
665 
729 
1136 
1383 
1178 
750 
578 
874 
1377 
1652 
1491 
1109 
913 
1078 
1394 
1450 
1129 
811 
944 
1464 
1816 
1599 
1107 
969 
1339 
1717 
1608 
1159 
921 
1121 
1435 
1474 
1298 
1284 
1536 
1752 
1639 
1265 
994 
1028 
1207 
1242 
1023 
697 
493 
541 
768 
968 
983 
799 
600 
545 
635 
728 
720 
649 
622 
641 
592 
423 
229 
146 
205 
260 
169 
-42 
-187 
-161 
-6 
120 
89 
-29 
-85 
7 
158 
201 
69 
-84 
-57 
111 
237 
179 
44 
9 
83 
103 
29 
4 
97 
149 
-11 
-261 
-238 
158 
573 
593 
267 
76 
332 
762 
872 
519 
72 
-80 
96 
280 
226 
62 
52 
309 
663 
835 
706 
419 
227 
255 
392 
363 
72 
-259 
-306 
-10 
373 
527 
418 
285 
324 
480 
584 
559 
490 
455 
456 
476 
524 
613 
666 
577 
372 
219 
216 
302 
347 
299 
241 
281 
434 
605 
707 
699 
582 
431 
364 
435 
570 
587 
435 
267 
309 
578 
855 
883 
633 
287 
97 
204 
527 
802 
791 
504 
223 
265 
628 
959 
925 
585 
307 
358 
604 
721 
633 
547 
647 
801 
760 
512 
329 
423 
679 
778 
611 
369 
312 
433 
556 
599 
642 
745 
834 
770 
600 
528 
648 
812 
797 
583 
385 
414 
619 
740 
647 
467 
429 
578 
741 
747 
611 
510 
544 
613 
626 
618 
690 
846 
927 
801 
594 
562 
757 
911 
761 
425 
287 
550 
953 
1067 
825 
592 
725 
1108 
1258 
943 
488 
403 
746 
1029 
814 
278 
41 
402 
965 
1132 
831 
559 
684 
988 
1028 
745 
526 
617 
783 
674 
387 
302 
591 
940 
952 
687 
489 
579 
795 
857 
777 
735 
783 
787 
667 
617 
796 
1035 
1006 
647 
306 
369 
758 
1008 
826 
463 
385 
755 
1229 
1349 
1028 
620 
535 
839 
1223 
1284 
909 
431 
278 
543 
889 
937 
646 
371 
399 
634 
843 
898 
862 
810 
712 
607 
642 
855 
1023 
891 
572 
488 
817 
1231 
1254 
846 
483 
602 
1046 
1307 
1166 
909 
905 
1146 
1313 
1238 
1096 
1104 
1172 
1082 
791 
610 
796 
1177 
1298 
980 
580 
549 
925 
1316 
1343 
1036 
720 
606 
654 
746 
812 
758 
512 
133 
-106 
42 
470 
771 
674 
404 
376 
685 
1018 
1035 
783 
591 
614 
694 
642 
516 
515 
718 
926 
930 
760 
632 
646 
695 
662 
523 
419 
485 
678 
815 
777 
674 
681 
815 
920 
836 
605 
415 
440 
714 
1125 
1547 
1868 
2148 
2620 
3450 
4490 
5313 
5591 
5461 
5306 
5256 
5005 
4249 
3059 
1880 
999 
362 
-220 
-749 
-1074 
-1170 
-1128 
-1054 
-931 
-722 
-489 
-367 
-434 
-607 
-726 
-662 
-419 
-133 
-1 
-121 
-303 
-233 
130 
502 
545 
235 
-89 
-113 
149 
403 
424 
274 
168 
241 
397 
549 
652 
739 
776 
700 
556 
521 
697 
896 
782 
359 
37 
177 
620 
875 
695 
348 
296 
574 
812 
774 
634 
701 
979 
1141 
947 
543 
312 
435 
736 
888 
774 
556 
472 
633 
900 
1077 
1057 
947 
885 
852 
743 
592 
560 
728 
927 
965 
817 
705 
792 
995 
1089 
1030 
1034 
1165 
1277 
1192 
1006 
1012 
1301 
1596 
1593 
1318 
1080 
1060 
1110 
989 
724 
596 
759 
1040 
1137 
1026 
951 
1153 
1573 
1906 
1937 
1713 
1452 
1422 
1627 
1811 
1707 
1378 
1172 
1316 
1623 
1677 
1369 
1029 
1074 
1463 
1726 
1521 
1041 
803 
978 
1246 
1244 
945 
644 
539 
541 
478 
344 
315 
507 
788 
910 
793 
605 
563 
705 
866 
827 
547 
199 
44 
203 
501 
592 
293 
-188 
-422 
-198 
216 
331 
2 
-422 
-454 
-75 
273 
187 
-191 
-386 
-177 
180 
277 
52 
-169 
-95 
168 
266 
52 
-243 
-272 
1 
298 
337 
150 
-42 
-89 
9 
133 
226 
280 
289 
233 
149 
133 
238 
369 
396 
281 
140 
102 
147 
160 
91 
18 
68 
270 
468 
505 
351 
155 
122 
303 
527 
554 
284 
-61 
-154 
147 
610 
852 
669 
264 
60 
205 
482 
553 
346 
109 
89 
271 
444 
450 
376 
370 
484 
617 
673 
624 
525 
428 
359 
320 
271 
226 
203 
233 
279 
300 
319 
404 
539 
617 
561 
450 
454 
578 
642 
519 
317 
229 
330 
458 
429 
278 
202 
319 
542 
674 
644 
524 
466 
558 
749 
864 
792 
582 
432 
487 
660 
734 
586 
352 
248 
360 
569 
724 
768 
706 
607 
542 
599 
754 
874 
793 
524 
309 
338 
508 
587 
519 
511 
706 
921 
845 
503 
281 
450 
766 
743 
328 
38 
294 
852 
1079 
790 
431 
517 
929 
1095 
761 
310 
254 
608 
907 
852 
604 
534 
710 
875 
841 
709 
714 
848 
872 
653 
359 
308 
593 
933 
979 
689 
397 
422 
693 
884 
821 
623 
533 
589 
658 
631 
537 
457 
415 
448 
625 
907 
1068 
891 
523 
393 
691 
1058 
963 
419 
9 
187 
746 
1069 
886 
556 
532 
776 
938 
830 
650 
635 
727 
698 
510 
372 
458 
660 
784 
705 
553 
506 
614 
723 
704 
574 
499 
585 
775 
885 
854 
800 
853 
981 
1005 
862 
686 
670 
790 
837 
709 
552 
578 
762 
903 
871 
780 
820 
954 
1024 
954 
853 
881 
1015 
1115 
1102 
1065 
1062 
1076 
1050 
1020 
1028 
1067 
1018 
851 
690 
727 
955 
1126 
1017 
681 
422 
473 
699 
761 
499 
152 
121 
462 
834 
872 
604 
392 
481 
703 
805 
731 
646 
654 
650 
559 
519 
659 
857 
854 
582 
288 
264 
523 
775 
798 
626 
455 
412 
484 
570 
572 
506 
472 
542 
699 
805 
775 
691 
667 
733 
763 
644 
397 
157 
77 
207 
521 
961 
1464 
1994 
2589 
3339 
4253 
5177 
5842 
6042 
5819 
5392 
4936 
4400 
3613 
2535 
1361 
437 
-65 
-300 
-559 
-942 
-1239 
-1172 
-778 
-437 
-499 
-865 
-1096 
-881 
-433 
-230 
-441 
-751 
-737 
-343 
107 
294 
223 
92 
39 
64 
141 
249 
321 
258 
132 
97 
263 
486 
551 
476 
456 
598 
735 
682 
516 
479 
653 
825 
748 
486 
301 
358 
561 
710 
706 
588 
492 
458 
506 
626 
751 
813 
803 
733 
666 
643 
650 
631 
575 
514 
498 
535 
611 
696 
787 
909 
1055 
1134 
1074 
897 
737 
719 
840 
936 
840 
606 
464 
599 
899 
1057 
929 
704 
679 
852 
976 
891 
744 
819 
1123 
1339 
1244 
1006 
960 
1198 
1446 
1396 
1115 
910 
955 
1141 
1249 
1210 
1134 
1143 
1270 
1466 
1631 
1693 
1654 
1580 
1594 
1705 
1784 
1683 
1449 
1354 
1512 
1713 
1657 
1329 
1093 
1226 
1522 
1554 
1260 
1052 
1276 
1683 
1709 
1187 
607 
547 
974 
1305 
1128 
615 
245 
290 
615 
908 
972 
833 
612 
459 
459 
583 
657 
523 
248 
31 
0 
122 
230 
272 
290 
271 
203 
102 
45 
96 
198 
218 
141 
41 
-8 
-27 
-52 
-43 
52 
218 
301 
215 
78 
99 
317 
501 
430 
186 
35 
145 
337 
339 
163 
75 
226 
421 
396 
157 
-21 
61 
279 
370 
270 
183 
261 
379 
335 
147 
71 
231 
422 
348 
23 
-175 
58 
576 
926 
844 
508 
297 
363 
506 
476 
287 
147 
211 
381 
462 
465 
475 
570 
680 
680 
580 
497 
494 
535 
562 
564 
564 
549 
517 
511 
531 
513 
396 
254 
273 
507 
772 
814 
604 
447 
573 
868 
943 
619 
162 
11 
254 
544 
547 
338 
257 
519 
900 
1050 
849 
522 
391 
537 
770 
832 
626 
309 
163 
348 
729 
990 
921 
654 
537 
728 
1006 
1044 
781 
492 
421 
516 
502 
316 
159 
254 
541 
755 
759 
664 
648 
720 
754 
688 
553 
439 
412 
481 
598 
679 
616 
452 
361 
478 
705 
758 
508 
209 
195 
487 
777 
791 
636 
615 
813 
1016 
985 
764 
605 
647 
758 
763 
664 
603 
660 
725 
676 
561 
581 
791 
954 
807 
443 
268 
497 
843 
832 
477 
233 
441 
851 
889 
509 
245 
506 
1011 
1110 
618 
77 
62 
502 
845 
800 
612 
626 
807 
890 
772 
629 
650 
756 
718 
460 
150 
63 
290 
674 
917 
834 
531 
365 
600 
1034 
1175 
767 
175 
-11 
382 
918 
1024 
658 
305 
377 
758 
1014 
906 
595 
383 
349 
389 
466 
592 
725 
723 
571 
450 
503 
671 
734 
574 
337 
223 
295 
440 
543 
600 
661 
770 
924 
1127 
1300 
1266 
948 
561 
437 
679 
956 
874 
483 
252 
517 
1050 
1335 
1199 
968 
1005 
1226 
1241 
931 
604 
616 
901 
1056 
880 
587 
540 
823 
1162 
1240 
1000 
671 
492 
525 
643 
691 
642 
575 
569 
622 
638 
610 
616 
709 
765 
664 
463 
345 
417 
602 
727 
718 
608 
465 
355 
363 
532 
718 
670 
329 
27 
147 
682 
1153 
1120 
677 
351 
511 
953 
1149 
858 
385 
215 
441 
720 
689 
395 
224 
398 
749 
964 
1027 
1179 
1621 
2294 
3004 
3678 
4399 
5127 
5685 
5913 
5812 
5436 
4746 
3778 
2739 
1869 
1145 
329 
-648 
-1409 
-1563 
-1216 
-904 
-1001 
-1283 
-1275 
-880 
-497 
-483 
-711 
-810 
-629 
-376 
-286 
-333 
-324 
-192 
-50 
18 
27 
57 
105 
141 
102 
58 
85 
197 
329 
352 
246 
116 
145 
393 
691 
776 
574 
264 
116 
194 
297 
278 
148 
98 
229 
436 
549 
531 
515 
612 
739 
716 
501 
286 
303 
529 
684 
601 
401 
382 
608 
851 
877 
725 
612 
608 
603 
494 
370 
391 
524 
589 
483 
311 
265 
425 
715 
985 
1074 
988 
886 
935 
1143 
1293 
1157 
800 
538 
591 
829 
967 
941 
901 
953 
1013 
956 
854 
867 
1000 
1102 
1063 
964 
943 
1034 
1124 
1150 
1163 
1191 
1214 
1224 
1243 
1292 
1330 
1327 
1308 
1325 
1397 
1463 
1481 
1456 
1404 
1311 
1198 
1127 
1135 
1187 
1209 
1212 
1286 
1434 
1516 
1371 
1107 
989 
1116 
1267 
1136 
725 
409 
472 
777 
954 
782 
416 
171 
204 
420 
618 
639 
446 
108 
-168 
-159 
122 
420 
450 
222 
17 
40 
208 
284 
185 
69 
80 
171 
205 
152 
82 
52 
39 
42 
81 
139 
138 
57 
7 
135 
381 
457 
214 
-144 
-237 
28 
293 
176 
-263 
-523 
-257 
293 
550 
304 
-60 
-31 
402 
765 
697 
351 
161 
310 
517 
468 
207 
38 
155 
392 
433 
199 
-66 
-59 
215 
495 
561 
451 
380 
441 
535 
531 
480 
480 
533 
483 
273 
112 
184 
427 
591 
556 
461 
450 
481 
460 
427 
509 
655 
640 
411 
250 
418 
769 
897 
655 
339 
317 
547 
690 
592 
458 
493 
622 
614 
442 
321 
366 
485 
486 
383 
314 
379 
507 
569 
576 
617 
715 
787 
754 
612 
452 
361 
383 
472 
517 
463 
379 
412 
616 
864 
966 
882 
760 
716 
725 
697 
620 
573 
568 
510 
348 
217 
276 
480 
594 
504 
386 
461 
714 
881 
809 
607 
514 
604 
727 
703 
560 
440 
419 
454 
467 
468 
525 
696 
904 
971 
811 
557 
460 
607 
780 
693 
384 
201 
364 
665 
746 
577 
479 
672 
947 
937 
638 
440 
624 
955 
1031 
763 
509 
568 
840 
985 
858 
609 
439 
411 
476 
598 
742 
808 
705 
528 
515 
753 
1020 
998 
674 
354 
342 
596 
834 
869 
772 
681 
626 
554 
481 
498 
615 
686 
594 
423 
398 
552 
721 
755 
714 
760 
931 
1043 
940 
701 
557 
615 
777 
881 
897 
889 
895 
881 
845 
861 
933 
942 
796 
579 
512 
674 
904 
980 
862 
730 
777 
944 
1041 
957 
776 
632 
618 
679 
715 
684 
645 
732 
983 
1252 
1362 
1280 
1164 
1148 
1221 
1222 
1075 
876 
761 
742 
751 
759 
779 
827 
875 
906 
975 
1070 
1106 
1014 
845 
742 
734 
720 
621 
498 
468 
529 
587 
578 
553 
543 
524 
482 
487 
634 
846 
906 
753 
574 
585 
698 
671 
490 
385 
512 
709 
698 
475 
358 
543 
810 
876 
745 
695 
819 
871 
629 
270 
196 
492 
807 
784 
483 
300 
447 
727 
828 
702 
527 
453 
475 
573 
793 
1233 
1836 
2467 
3092 
3817 
4643 
5348 
5719 
5783 
5705 
5517 
4999 
3970 
2621 
1422 
653 
182 
-259 
-747 
-1159 
-1389 
-1513 
-1514 
-1273 
-828 
-503 
-597 
-959 
-1074 
-661 
-74 
101 
-239 
-590 
-449 
53 
393 
302 
68 
72 
314 
463 
375 
246 
304 
462 
462 
272 
161 
259 
388 
287 
32 
-47 
222 
589 
671 
413 
188 
249 
486 
590 
470 
330 
389 
619 
785 
745 
616 
598 
738 
876 
830 
624 
457 
456 
555 
536 
342 
168 
248 
539 
779 
805 
756 
859 
1114 
1224 
1057 
794 
743 
921 
1034 
895 
608 
422 
434 
530 
629 
753 
908 
994 
927 
808 
840 
1039 
1210 
1164 
954 
799 
848 
1015 
1136 
1125 
1080 
1101 
1170 
1185 
1109 
1070 
1192 
1430 
1584 
1505 
1319 
1247 
1382 
1586 
1688 
1689 
1698 
1732 
1675 
1497 
1362 
1402 
1551 
1620 
1549 
1434 
1352 
1240 
1085 
1004 
1141 
1371 
1391 
1064 
699 
675 
995 
1292 
1266 
992 
778 
810 
956 
1028 
958 
784 
578 
411 
381 
504 
639 
546 
238 
12 
132 
491 
663 
385 
-85 
-311 
-152 
109 
192 
81 
-58 
-156 
-215 
-192 
4 
290 
381 
135 
-175 
-106 
378 
786 
674 
205 
-85 
140 
575 
678 
309 
-144 
-269 
-45 
199 
202 
57 
3 
122 
302 
390 
378 
337 
294 
250 
212 
208 
226 
215 
128 
16 
-20 
70 
244 
364 
373 
321 
296 
331 
410 
504 
597 
631 
558 
376 
225 
277 
531 
746 
706 
473 
349 
491 
709 
723 
555 
493 
660 
815 
651 
278 
145 
411 
769 
771 
419 
150 
234 
495 
623 
549 
507 
612 
729 
676 
543 
541 
736 
953 
940 
666 
364 
289 
501 
783 
856 
644 
373 
368 
677 
978 
905 
510 
180 
266 
608 
798 
608 
281 
248 
570 
945 
1013 
727 
365 
226 
343 
529 
572 
440 
245 
165 
260 
456 
640 
780 
858 
836 
713 
567 
518 
603 
702 
668 
511 
392 
456 
641 
768 
718 
575 
486 
523 
572 
522 
357 
248 
370 
648 
823 
707 
406 
225 
361 
659 
823 
707 
443 
272 
262 
365 
501 
611 
671 
680 
656 
648 
674 
690 
674 
646 
636 
598 
521 
497 
624 
830 
908 
772 
596 
602 
743 
749 
528 
329 
426 
734 
876 
687 
424 
432 
721 
967 
910 
621 
333 
282 
479 
762 
888 
710 
401 
351 
747 
1257 
1298 
753 
173 
123 
569 
905 
706 
214 
-50 
95 
380 
522 
519 
464 
412 
365 
434 
720 
1061 
1177 
975 
718 
683 
812 
831 
666 
539 
632 
774 
669 
325 
112 
343 
839 
1099 
877 
416 
186 
411 
870 
1193 
1139 
792 
457 
398 
628 
925 
1014 
836 
619 
607 
789 
968 
946 
773 
681 
766 
928 
968 
811 
607 
597 
840 
1153 
1263 
1072 
787 
706 
878 
1068 
1004 
720 
484 
506 
729 
853 
714 
449 
323 
420 
570 
564 
369 
182 
192 
350 
504 
590 
668 
750 
765 
654 
483 
412 
476 
570 
603 
580 
544 
480 
377 
350 
490 
692 
671 
326 
-69 
-117 
231 
616 
715 
552 
428 
545 
779 
901 
804 
586 
386 
311 
378 
532 
727 
971 
1378 
2067 
2940 
3790 
4502 
5136 
5745 
6161 
6178 
5809 
5310 
4763 
3944 
2646 
1113 
-18 
-447 
-568 
-978 
-1721 
-2193 
-1908 
-1112 
-531 
-540 
-826 
-913 
-714 
-515 
-507 
-561 
-493 
-331 
-265 
-366 
-405 
-211 
120 
318 
269 
126 
83 
151 
186 
139 
140 
303 
484 
433 
155 
28 
349 
882 
1086 
732 
202 
47 
362 
740 
822 
656 
529 
521 
538 
554 
659 
880 
1011 
890 
651 
580 
744 
861 
702 
403 
303 
508 
743 
722 
528 
486 
744 
1057 
1097 
869 
724 
892 
1165 
1143 
724 
261 
163 
438 
710 
696 
527 
508 
764 
1092 
1240 
1156 
972 
864 
847 
889 
948 
1005 
1027 
1035 
1092 
1224 
1362 
1386 
1290 
1228 
1328 
1499 
1489 
1214 
926 
958 
1324 
1655 
1616 
1313 
1168 
1375 
1666 
1651 
1304 
1026 
1143 
1509 
1738 
1662 
1490 
1473 
1597 
1676 
1619 
1515 
1463 
1448 
1385 
1298 
1278 
1338 
1379 
1308 
1129 
909 
768 
796 
975 
1139 
1084 
765 
413 
363 
679 
1052 
1097 
746 
326 
204 
390 
569 
447 
85 
-192 
-139 
147 
357 
312 
121 
57 
226 
460 
491 
269 
43 
24 
146 
167 
-5 
-191 
-183 
24 
223 
240 
131 
94 
203 
325 
293 
76 
-131 
-138 
58 
254 
257 
86 
-48 
32 
297 
469 
373 
117 
-8 
136 
374 
464 
357 
233 
240 
332 
391 
446 
585 
762 
795 
611 
412 
437 
651 
744 
547 
243 
139 
287 
454 
403 
229 
204 
450 
771 
872 
676 
390 
276 
415 
619 
688 
530 
264 
89 
111 
280 
473 
618 
744 
879 
953 
908 
784 
734 
842 
968 
897 
566 
201 
82 
256 
498 
609 
635 
708 
793 
748 
572 
486 
668 
951 
992 
682 
295 
179 
378 
645 
752 
712 
640 
575 
482 
416 
497 
748 
988 
959 
658 
349 
290 
508 
757 
805 
659 
530 
572 
732 
820 
747 
635 
635 
721 
696 
513 
382 
530 
840 
933 
667 
365 
437 
798 
962 
693 
341 
427 
913 
1229 
1009 
541 
377 
598 
770 
581 
245 
144 
347 
543 
557 
540 
718 
981 
1036 
820 
609 
642 
808 
808 
585 
400 
465 
670 
727 
547 
391 
498 
764 
842 
605 
334 
382 
745 
1024 
946 
656 
518 
667 
879 
890 
704 
549 
582 
743 
838 
800 
703 
662 
681 
689 
626 
553 
563 
684 
789 
766 
643 
558 
607 
727 
789 
767 
727 
722 
737 
713 
713 
831 
997 
975 
648 
248 
168 
500 
901 
950 
619 
336 
463 
895 
1198 
1131 
877 
771 
890 
1007 
954 
855 
901 
1091 
1214 
1149 
1003 
948 
1049 
1168 
1145 
966 
712 
513 
488 
623 
772 
726 
496 
354 
545 
964 
1176 
946 
534 
432 
768 
1119 
993 
443 
31 
117 
506 
724 
563 
271 
156 
230 
330 
412 
560 
737 
723 
433 
154 
234 
655 
1010 
942 
557 
244 
221 
376 
523 
679 
876 
962 
744 
314 
112 
405 
934 
1111 
665 
9 
-224 
173 
784 
1102 
1019 
861 
1035 
1621 
2357 
3058 
3710 
4410 
5137 
5726 
5990 
5883 
5505 
4988 
4338 
3447 
2260 
926 
-250 
-996 
-1288 
-1358 
-1455 
-1610 
-1630 
-1387 
-991 
-702 
-659 
-742 
-754 
-682 
-645 
-678 
-635 
-402 
-128 
-69 
-207 
-246 
-33 
252 
264 
11 
-129 
112 
514 
660 
481 
325 
475 
764 
835 
612 
384 
379 
468 
396 
194 
149 
370 
637 
654 
435 
255 
350 
600 
738 
683 
568 
565 
645 
689 
656 
624 
651 
707 
766 
821 
872 
880 
789 
658 
669 
896 
1154 
1180 
923 
649 
623 
837 
1023 
1007 
843 
715 
718 
763 
793 
807 
888 
1013 
1085 
1000 
823 
749 
908 
1204 
1337 
1190 
912 
813 
1015 
1311 
1382 
1181 
976 
1052 
1364 
1628 
1631 
1424 
1257 
1293 
1464 
1609 
1626 
1575 
1542 
1557 
1543 
1481 
1421 
1427 
1512 
1556 
1475 
1298 
1162 
1203 
1413 
1648 
1746 
1651 
1424 
1238 
1187 
1272 
1366 
1321 
1101 
857 
763 
884 
1063 
1119 
1028 
950 
1005 
1098 
1034 
781 
553 
541 
654 
640 
438 
283 
367 
572 
610 
381 
154 
153 
288 
310 
168 
45 
93 
187 
126 
-17 
-27 
149 
288 
189 
-30 
-84 
100 
297 
269 
85 
34 
224 
442 
429 
191 
-9 
41 
227 
227 
-84 
-463 
-542 
-254 
108 
198 
-24 
-247 
-180 
195 
569 
617 
302 
-79 
-170 
111 
502 
599 
300 
-87 
-173 
110 
459 
548 
388 
204 
145 
159 
161 
211 
383 
585 
618 
476 
359 
405 
525 
526 
397 
310 
318 
274 
118 
64 
321 
736 
883 
600 
248 
278 
660 
905 
706 
316 
221 
483 
687 
524 
199 
123 
357 
538 
391 
102 
50 
344 
685 
759 
585 
434 
488 
689 
821 
737 
480 
239 
190 
351 
559 
631 
577 
581 
743 
935 
952 
777 
608 
585 
620 
530 
337 
240 
339 
490 
451 
202 
-12 
81 
465 
814 
790 
420 
112 
273 
839 
1239 
1020 
390 
17 
287 
818 
949 
579 
236 
366 
760 
897 
668 
462 
540 
700 
630 
377 
315 
567 
841 
871 
722 
688 
892 
1126 
1182 
1065 
904 
788 
758 
883 
1060 
1078 
828 
504 
423 
643 
874 
808 
509 
302 
385 
613 
756 
790 
818 
851 
775 
568 
377 
372 
503 
548 
473 
397 
433 
545 
590 
593 
658 
768 
790 
682 
550 
595 
824 
966 
828 
593 
568 
769 
918 
780 
520 
476 
709 
916 
814 
578 
613 
991 
1282 
1095 
614 
367 
570 
831 
671 
204 
24 
424 
1019 
1197 
844 
459 
507 
874 
1072 
895 
585 
504 
690 
879 
922 
866 
833 
854 
898 
945 
1017 
1086 
1062 
927 
757 
696 
794 
944 
968 
820 
640 
604 
705 
735 
534 
256 
187 
407 
611 
498 
144 
-44 
154 
500 
599 
415 
240 
301 
481 
492 
289 
112 
149 
300 
364 
291 
224 
325 
591 
845 
907 
758 
542 
436 
478 
528 
418 
201 
107 
253 
450 
434 
220 
123 
344 
708 
803 
523 
166 
82 
293 
543 
623 
618 
757 
1164 
1802 
2561 
3350 
4113 
4830 
5461 
5941 
6142 
5909 
5195 
4216 
3294 
2550 
1803 
819 
-357 
-1290 
-1550 
-1204 
-817 
-877 
-1284 
-1508 
-1215 
-680 
-463 
-741 
-1097 
-1055 
-632 
-292 
-337 
-547 
-486 
-96 
223 
106 
-328 
-581 
-379 
41 
224 
73 
-89 
41 
317 
424 
310 
252 
442 
694 
679 
427 
249 
332 
521 
575 
525 
553 
664 
642 
427 
306 
513 
859 
932 
620 
296 
302 
553 
705 
598 
438 
437 
523 
519 
422 
408 
552 
726 
810 
807 
841 
905 
927 
915 
961 
1043 
1036 
867 
688 
689 
871 
1025 
962 
781 
763 
1012 
1284 
1236 
842 
491 
563 
1018 
1356 
1183 
677 
416 
770 
1410 
1676 
1353 
878 
830 
1236 
1594 
1518 
1197 
1088 
1293 
1496 
1445 
1294 
1342 
1591 
1715 
1509 
1219 
1217 
1524 
1781 
1711 
1417 
1234 
1323 
1529 
1579 
1442 
1272 
1205 
1223 
1249 
1259 
1282 
1344 
1425 
1485 
1516 
1511 
1428 
1210 
896 
631 
568 
687 
822 
782 
570 
392 
462 
731 
884 
673 
226 
-83 
-8 
270 
368 
174 
-30 
68 
374 
489 
237 
-86 
-68 
282 
491 
175 
-393 
-575 
-121 
519 
716 
372 
12 
104 
501 
672 
392 
4 
-58 
170 
280 
39 
-295 
-351 
-119 
45 
-51 
-182 
-38 
290 
428 
240 
47 
206 
587 
695 
336 
-85 
-64 
358 
659 
466 
41 
-112 
116 
377 
363 
155 
80 
213 
356 
360 
297 
285 
311 
291 
276 
375 
519 
489 
254 
94 
305 
752 
975 
781 
465 
436 
679 
806 
644 
474 
589 
852 
876 
589 
367 
501 
805 
862 
591 
296 
243 
338 
411 
469 
631 
830 
852 
670 
532 
636 
833 
830 
616 
444 
443 
468 
380 
320 
467 
757 
895 
781 
620 
639 
766 
762 
583 
447 
498 
620 
640 
575 
560 
646 
755 
792 
764 
690 
572 
442 
396 
471 
551 
483 
327 
306 
504 
753 
820 
666 
506 
535 
688 
773 
687 
507 
363 
349 
482 
676 
778 
707 
556 
548 
731 
921 
898 
677 
481 
474 
558 
542 
390 
254 
291 
439 
525 
497 
466 
544 
697 
780 
727 
632 
596 
636 
678 
684 
664 
642 
634 
656 
692 
686 
598 
496 
528 
685 
792 
707 
543 
584 
901 
1168 
1067 
705 
460 
516 
641 
546 
291 
169 
289 
454 
483 
465 
600 
826 
893 
728 
562 
642 
879 
977 
777 
474 
377 
571 
853 
993 
968 
902 
911 
1004 
1086 
1060 
989 
951 
929 
816 
618 
528 
676 
984 
1170 
1034 
733 
628 
863 
1217 
1367 
1187 
904 
769 
828 
933 
987 
994 
1015 
1045 
1027 
956 
883 
871 
901 
881 
726 
458 
239 
245 
447 
637 
651 
475 
293 
275 
411 
568 
624 
564 
441 
315 
276 
368 
522 
605 
569 
465 
433 
500 
591 
620 
582 
505 
431 
346 
312 
399 
603 
782 
779 
616 
489 
575 
831 
1023 
915 
571 
279 
259 
483 
717 
790 
748 
720 
833 
1149 
1646 
2293 
3015 
3706 
4340 
4952 
5506 
5884 
5933 
5600 
4942 
4014 
2908 
1768 
737 
-86 
-733 
-1242 
-1579 
-1677 
-1560 
-1342 
-1112 
-923 
-788 
-758 
-787 
-794 
-701 
-541 
-427 
-395 
-368 
-286 
-140 
-17 
65 
134 
139 
70 
15 
108 
349 
561 
573 
391 
220 
173 
235 
341 
480 
646 
743 
654 
467 
385 
522 
729 
747 
514 
247 
239 
552 
934 
1050 
793 
422 
329 
632 
1004 
988 
506 
56 
141 
696 
1172 
1105 
664 
392 
554 
894 
1014 
863 
659 
591 
643 
678 
704 
813 
967 
1026 
897 
714 
666 
782 
905 
886 
808 
869 
1120 
1363 
1369 
1140 
932 
949 
1101 
1140 
959 
743 
696 
840 
1028 
1133 
1171 
1211 
1253 
1241 
1175 
1107 
1080 
1097 
1154 
1238 
1301 
1273 
1190 
1202 
1410 
1715 
1881 
1803 
1579 
1449 
1531 
1660 
1680 
1575 
1494 
1530 
1626 
1656 
1603 
1535 
1483 
1428 
1359 
1333 
1374 
1345 
1126 
798 
646 
829 
1147 
1194 
839 
396 
270 
530 
819 
785 
480 
165 
71 
149 
214 
195 
135 
94 
74 
65 
118 
205 
247 
218 
210 
318 
493 
540 
344 
30 
-140 
-59 
126 
145 
-33 
-211 
-191 
-2 
191 
271 
302 
356 
398 
384 
303 
243 
254 
260 
194 
48 
-115 
-218 
-186 
2 
264 
410 
295 
58 
3 
268 
623 
689 
413 
137 
179 
463 
633 
454 
163 
78 
263 
433 
340 
124 
111 
389 
672 
598 
256 
120 
449 
949 
1011 
503 
-28 
24 
566 
908 
652 
174 
137 
625 
1056 
935 
454 
202 
408 
725 
733 
471 
293 
410 
641 
668 
486 
326 
413 
640 
733 
621 
487 
540 
770 
919 
829 
594 
460 
523 
660 
716 
664 
565 
503 
528 
665 
840 
901 
764 
554 
480 
572 
665 
599 
445 
373 
430 
494 
541 
671 
894 
998 
817 
493 
418 
745 
1135 
1107 
619 
134 
86 
421 
709 
634 
300 
95 
259 
648 
920 
904 
723 
645 
753 
889 
864 
661 
454 
397 
492 
601 
641 
630 
642 
706 
775 
788 
726 
644 
631 
669 
688 
637 
585 
639 
791 
897 
869 
795 
811 
858 
764 
509 
314 
404 
678 
796 
602 
359 
419 
776 
1077 
1031 
785 
668 
795 
938 
863 
614 
461 
550 
732 
785 
626 
411 
360 
523 
803 
1004 
982 
764 
539 
516 
734 
976 
957 
657 
389 
469 
842 
1112 
974 
637 
607 
1015 
1420 
1302 
738 
353 
590 
1171 
1443 
1145 
723 
720 
1130 
1447 
1361 
1086 
971 
1039 
1023 
806 
597 
568 
599 
502 
330 
353 
617 
810 
651 
303 
178 
456 
833 
871 
532 
184 
169 
450 
747 
817 
680 
533 
495 
531 
556 
509 
432 
385 
396 
430 
475 
545 
677 
850 
968 
940 
788 
646 
604 
629 
611 
541 
480 
518 
626 
684 
647 
609 
659 
786 
885 
922 
1021 
1337 
1878 
2493 
3083 
3691 
4323 
4865 
5122 
4995 
4579 
4032 
3396 
2606 
1653 
661 
-152 
-658 
-886 
-1011 
-1166 
-1335 
-1368 
-1147 
-791 
-576 
-671 
-870 
-854 
-548 
-231 
-197 
-404 
-489 
-234 
161 
353 
265 
128 
134 
261 
384 
457 
541 
590 
518 
351 
270 
386 
577 
637 
545 
498 
642 
873 
989 
973 
949 
968 
928 
734 
528 
530 
735 
877 
791 
628 
637 
869 
1113 
1137 
968 
821 
802 
812 
713 
544 
431 
474 
624 
718 
700 
682 
781 
984 
1139 
1134 
1017 
937 
941 
911 
805 
711 
759 
935 
1054 
1010 
939 
1025 
1225 
1330 
1246 
1147 
1203 
1341 
1300 
1016 
760 
793 
1053 
1261 
1232 
1051 
953 
1089 
1352 
1549 
1532 
1353 
1208 
1252 
1426 
1514 
1412 
1316 
1464 
1815 
2037 
1863 
1490 
1368 
1639 
1933 
1817 
1342 
1001 
1114 
1472 
1615 
1417 
1206 
1310 
1614 
1717 
1438 
1035 
904 
1124 
1404 
1421 
1152 
864 
842 
1047 
1231 
1210 
1015 
847 
794 
751 
593 
385 
329 
480 
642 
564 
284 
142 
337 
668 
740 
447 
99 
38 
191 
242 
54 
-180 
-210 
-43 
109 
131 
97 
85 
83 
27 
32 
207 
422 
391 
50 
-268 
-154 
365 
776 
658 
151 
-204 
-110 
195 
296 
84 
-164 
-166 
35 
219 
267 
252 
302 
399 
432 
365 
289 
312 
380 
363 
270 
229 
314 
426 
450 
375 
404 
587 
707 
569 
287 
208 
458 
739 
678 
324 
78 
189 
454 
509 
326 
201 
324 
499 
455 
276 
287 
587 
881 
794 
384 
62 
136 
476 
716 
709 
599 
551 
586 
627 
612 
628 
752 
839 
712 
415 
242 
426 
829 
1044 
820 
411 
341 
783 
1325 
1361 
803 
194 
95 
484 
826 
709 
316 
137 
392 
771 
887 
719 
598 
724 
935 
933 
663 
367 
263 
304 
292 
219 
231 
396 
615 
681 
595 
602 
834 
1096 
1075 
753 
454 
461 
711 
852 
741 
526 
425 
427 
357 
228 
265 
574 
935 
998 
730 
467 
544 
923 
1265 
1270 
923 
474 
208 
253 
499 
673 
583 
308 
180 
387 
758 
939 
761 
445 
297 
399 
546 
609 
634 
667 
702 
659 
594 
604 
687 
723 
616 
458 
384 
451 
587 
707 
775 
787 
737 
702 
789 
993 
1128 
1016 
712 
479 
511 
723 
884 
866 
752 
677 
674 
688 
693 
717 
765 
834 
867 
853 
846 
885 
954 
999 
970 
866 
756 
752 
861 
968 
935 
784 
689 
767 
925 
981 
853 
677 
619 
662 
673 
616 
555 
566 
599 
574 
502 
466 
492 
498 
414 
304 
295 
392 
515 
615 
689 
757 
776 
744 
714 
729 
769 
735 
592 
432 
389 
468 
574 
630 
638 
626 
603 
587 
618 
688 
753 
741 
625 
510 
498 
581 
634 
548 
365 
233 
269 
451 
684 
938 
1282 
1789 
2418 
3087 
3736 
4365 
4879 
5111 
4996 
4594 
4078 
3502 
2719 
1681 
597 
-225 
-624 
-770 
-901 
-1080 
-1163 
-1052 
-881 
-829 
-852 
-746 
-464 
-249 
-358 
-653 
-715 
-345 
147 
282 
6 
-270 
-167 
212 
430 
310 
108 
134 
343 
469 
396 
274 
289 
426 
507 
472 
407 
438 
624 
857 
974 
877 
642 
490 
571 
794 
884 
681 
390 
323 
538 
823 
922 
815 
675 
647 
724 
806 
827 
762 
645 
582 
634 
749 
814 
802 
804 
904 
1010 
982 
854 
795 
928 
1067 
945 
589 
338 
458 
807 
1018 
920 
724 
695 
867 
1072 
1141 
1058 
906 
767 
739 
876 
1108 
1259 
1238 
1151 
1183 
1365 
1514 
1464 
1279 
1152 
1155 
1182 
1135 
1056 
1086 
1236 
1370 
1416 
1430 
1508 
1609 
1621 
1505 
1378 
1370 
1458 
1491 
1399 
1327 
1429 
1656 
1763 
1593 
1267 
1110 
1250 
1488 
1509 
1289 
1068 
1018 
1090 
1142 
1156 
1207 
1258 
1160 
907 
703 
748 
948 
1013 
858 
675 
675 
766 
717 
498 
323 
356 
465 
397 
134 
-37 
95 
378 
496 
291 
-35 
-155 
49 
346 
436 
247 
-8 
-67 
134 
434 
581 
464 
209 
36 
52 
164 
199 
60 
-187 
-344 
-291 
-82 
127 
215 
213 
234 
374 
584 
703 
618 
374 
186 
200 
327 
355 
208 
58 
109 
317 
410 
265 
94 
187 
543 
809 
682 
290 
64 
264 
679 
857 
612 
203 
-8 
120 
389 
528 
475 
367 
334 
398 
501 
580 
612 
599 
562 
499 
436 
388 
365 
367 
390 
441 
544 
709 
856 
892 
783 
632 
614 
755 
894 
861 
693 
571 
615 
716 
730 
676 
656 
726 
753 
628 
434 
350 
459 
669 
784 
696 
519 
474 
703 
1072 
1227 
970 
508 
323 
618 
1049 
1122 
792 
487 
563 
858 
948 
709 
399 
266 
249 
173 
73 
155 
429 
653 
638 
491 
542 
825 
1074 
1059 
810 
587 
529 
555 
573 
587 
622 
652 
644 
616 
663 
776 
833 
728 
547 
481 
619 
830 
863 
669 
471 
533 
824 
1041 
928 
589 
386 
504 
717 
670 
369 
188 
390 
794 
987 
834 
584 
562 
769 
935 
900 
741 
614 
566 
563 
611 
752 
926 
978 
869 
756 
803 
944 
969 
774 
558 
558 
737 
820 
639 
375 
365 
699 
1072 
1131 
852 
556 
551 
831 
1157 
1257 
1097 
847 
703 
752 
897 
991 
944 
827 
759 
801 
901 
976 
994 
993 
980 
936 
885 
888 
992 
1094 
1068 
918 
827 
940 
1141 
1149 
853 
489 
383 
594 
809 
747 
495 
347 
442 
623 
695 
663 
647 
657 
580 
425 
358 
476 
625 
626 
521 
542 
767 
956 
861 
576 
416 
483 
571 
468 
262 
175 
268 
403 
485 
611 
853 
1055 
1008 
741 
533 
609 
828 
893 
709 
423 
226 
179 
274 
522 
864 
1162 
1331 
1536 
2076 
2979 
3867 
4328 
4371 
4345 
4462 
4488 
4087 
3271 
2367 
1600 
920 
234 
-361 
-693 
-814 
-890 
-979 
-939 
-711 
-488 
-482 
-613 
-605 
-356 
-123 
-164 
-351 
-346 
-60 
229 
214 
-51 
-242 
-180 
15 
116 
123 
168 
315 
454 
485 
472 
522 
619 
645 
546 
453 
473 
559 
589 
536 
569 
777 
1053 
1171 
1051 
843 
747 
779 
805 
732 
614 
539 
545 
584 
602 
616 
644 
712 
805 
869 
876 
867 
909 
1051 
1213 
1262 
1154 
951 
774 
684 
676 
743 
844 
912 
842 
664 
554 
641 
908 
1135 
1141 
971 
827 
856 
1041 
1238 
1329 
1304 
1233 
1168 
1107 
1031 
970 
1011 
1197 
1370 
1370 
1201 
1089 
1210 
1422 
1450 
1246 
1044 
1074 
1215 
1212 
1058 
1065 
1412 
1813 
1862 
1544 
1279 
1435 
1802 
1881 
1549 
1178 
1172 
1461 
1619 
1430 
1154 
1153 
1419 
1583 
1415 
1154 
1184 
1546 
1817 
1646 
1179 
910 
1070 
1330 
1210 
703 
325 
472 
889 
1026 
678 
238 
195 
539 
844 
763 
363 
57 
88 
354 
570 
516 
271 
80 
62 
157 
195 
130 
117 
261 
418 
341 
10 
-232 
-63 
397 
673 
445 
-68 
-304 
4 
560 
835 
627 
218 
22 
105 
200 
105 
-111 
-172 
7 
219 
297 
281 
386 
624 
761 
614 
329 
209 
344 
450 
272 
-50 
-146 
164 
591 
703 
419 
77 
40 
302 
561 
603 
516 
477 
518 
517 
429 
357 
411 
523 
489 
260 
28 
34 
262 
475 
518 
442 
438 
593 
803 
878 
723 
438 
248 
301 
545 
717 
617 
380 
347 
713 
1169 
1244 
861 
436 
391 
635 
764 
578 
359 
420 
673 
759 
583 
461 
654 
996 
1066 
748 
370 
314 
554 
745 
670 
476 
423 
562 
701 
692 
568 
482 
545 
674 
712 
604 
470 
507 
726 
954 
966 
763 
575 
627 
880 
1042 
945 
709 
621 
763 
903 
815 
539 
377 
515 
798 
923 
784 
574 
550 
729 
901 
882 
723 
616 
669 
798 
850 
783 
663 
585 
585 
607 
565 
466 
385 
401 
556 
756 
842 
739 
556 
504 
682 
924 
961 
727 
459 
427 
651 
866 
845 
698 
685 
864 
985 
822 
511 
407 
615 
865 
868 
645 
463 
526 
718 
818 
747 
623 
588 
650 
705 
691 
633 
645 
789 
1007 
1114 
996 
800 
773 
977 
1160 
1049 
696 
430 
500 
780 
946 
870 
738 
775 
974 
1135 
1130 
1025 
981 
1047 
1122 
1097 
997 
911 
902 
952 
999 
960 
862 
786 
789 
827 
838 
772 
656 
586 
604 
719 
873 
971 
929 
722 
431 
229 
269 
497 
670 
590 
309 
120 
258 
642 
957 
948 
688 
473 
505 
701 
814 
724 
533 
450 
545 
636 
584 
425 
389 
576 
803 
792 
538 
351 
473 
821 
1059 
1013 
817 
672 
619 
555 
484 
520 
669 
794 
802 
922 
1465 
2415 
3311 
3748 
3906 
4231 
4793 
5111 
4735 
3837 
2981 
2407 
1834 
932 
-68 
-695 
-852 
-893 
-1109 
-1321 
-1210 
-838 
-585 
-624 
-703 
-545 
-228 
-92 
-255 
-454 
-409 
-149 
48 
34 
-100 
-145 
-73 
46 
143 
242 
355 
432 
424 
385 
421 
549 
660 
597 
372 
192 
259 
493 
613 
477 
251 
213 
407 
659 
781 
768 
718 
666 
631 
629 
671 
701 
593 
399 
325 
497 
762 
853 
689 
512 
533 
698 
739 
599 
430 
445 
638 
778 
770 
748 
854 
1031 
1060 
859 
625 
633 
898 
1143 
1083 
772 
515 
572 
889 
1169 
1203 
994 
746 
657 
777 
991 
1117 
1065 
939 
894 
944 
954 
867 
847 
1029 
1320 
1401 
1168 
926 
1018 
1436 
1772 
1673 
1306 
1095 
1214 
1451 
1521 
1392 
1254 
1236 
1324 
1369 
1339 
1308 
1355 
1463 
1503 
1425 
1308 
1284 
1366 
1418 
1315 
1125 
1024 
1069 
1115 
1051 
949 
979 
1159 
1284 
1173 
909 
731 
764 
881 
869 
681 
449 
336 
397 
531 
590 
497 
305 
164 
154 
268 
344 
241 
15 
-129 
-53 
170 
294 
180 
-19 
-16 
258 
546 
514 
147 
-231 
-297 
-76 
121 
65 
-142 
-216 
-32 
282 
515 
600 
552 
452 
357 
299 
294 
278 
171 
-5 
-96 
3 
231 
388 
371 
327 
442 
664 
731 
510 
180 
54 
191 
348 
325 
193 
162 
275 
394 
420 
437 
530 
616 
524 
282 
131 
209 
386 
392 
199 
51 
134 
384 
509 
391 
216 
237 
474 
691 
657 
435 
330 
509 
773 
820 
587 
322 
303 
515 
687 
655 
496 
384 
418 
567 
756 
881 
821 
571 
328 
362 
667 
912 
804 
452 
276 
521 
913 
1032 
770 
433 
347 
495 
673 
745 
738 
719 
664 
566 
522 
619 
739 
686 
427 
176 
153 
367 
603 
695 
660 
562 
462 
413 
490 
690 
858 
790 
504 
317 
459 
835 
1079 
986 
699 
550 
650 
816 
801 
573 
351 
373 
678 
1027 
1103 
875 
639 
670 
929 
1060 
830 
449 
313 
536 
809 
820 
629 
536 
671 
832 
837 
747 
702 
660 
507 
290 
228 
451 
727 
759 
584 
483 
617 
821 
865 
768 
711 
768 
795 
707 
627 
711 
875 
874 
683 
497 
525 
709 
775 
615 
432 
480 
730 
888 
758 
472 
373 
603 
923 
987 
722 
397 
345 
562 
757 
698 
489 
387 
509 
683 
700 
567 
473 
560 
769 
924 
903 
774 
711 
779 
912 
947 
831 
678 
635 
735 
849 
832 
722 
676 
782 
904 
896 
763 
666 
740 
907 
992 
937 
824 
797 
896 
1027 
1089 
1049 
966 
907 
856 
816 
805 
862 
936 
930 
811 
697 
719 
872 
955 
822 
591 
521 
710 
950 
948 
713 
518 
569 
750 
792 
604 
363 
313 
431 
522 
490 
430 
484 
625 
693 
631 
561 
634 
796 
866 
773 
633 
653 
841 
985 
903 
662 
484 
514 
633 
630 
476 
358 
448 
680 
802 
708 
538 
524 
695 
814 
711 
531 
614 
1061 
1607 
1960 
2186 
2682 
3634 
4715 
5366 
5382 
5071 
4819 
4651 
4257 
3456 
2429 
1483 
741 
153 
-298 
-536 
-530 
-447 
-447 
-544 
-616 
-597 
-561 
-603 
-671 
-664 
-553 
-429 
-361 
-311 
-165 
113 
425 
577 
468 
161 
-96 
-98 
147 
419 
471 
303 
142 
168 
369 
588 
728 
804 
847 
823 
682 
494 
414 
506 
699 
820 
778 
632 
516 
523 
683 
894 
1007 
904 
617 
369 
377 
596 
769 
713 
559 
556 
764 
932 
882 
770 
838 
1086 
1190 
928 
550 
449 
692 
951 
953 
772 
679 
798 
980 
1077 
1111 
1121 
1095 
1013 
945 
983 
1094 
1114 
998 
887 
939 
1130 
1247 
1165 
993 
885 
887 
923 
920 
917 
1048 
1276 
1421 
1363 
1193 
1149 
1365 
1611 
1592 
1281 
971 
972 
1231 
1440 
1396 
1251 
1306 
1573 
1786 
1741 
1534 
1442 
1566 
1723 
1668 
1389 
1143 
1159 
1399 
1606 
1598 
1399 
1210 
1196 
1330 
1478 
1520 
1396 
1151 
940 
917 
1125 
1347 
1247 
845 
528 
641 
1019 
1089 
602 
8 
-55 
491 
1005 
921 
391 
33 
187 
540 
596 
272 
-79 
-142 
6 
102 
61 
29 
142 
325 
414 
335 
186 
116 
187 
299 
352 
281 
144 
70 
176 
418 
567 
470 
230 
136 
360 
739 
903 
707 
410 
382 
626 
805 
630 
216 
-63 
-29 
160 
269 
255 
266 
389 
514 
543 
509 
538 
647 
705 
625 
464 
360 
421 
556 
632 
595 
526 
503 
523 
535 
475 
415 
440 
534 
630 
664 
620 
538 
494 
560 
682 
714 
549 
269 
114 
235 
507 
650 
551 
364 
334 
485 
631 
630 
561 
543 
580 
582 
506 
409 
409 
526 
689 
794 
769 
646 
510 
477 
526 
547 
464 
334 
314 
450 
604 
598 
481 
494 
740 
1049 
1141 
945 
663 
557 
675 
844 
909 
861 
754 
651 
606 
673 
868 
1067 
1075 
855 
552 
393 
447 
598 
689 
668 
596 
570 
648 
814 
947 
906 
717 
573 
666 
907 
1005 
810 
521 
481 
727 
980 
977 
802 
725 
857 
1012 
967 
766 
635 
691 
852 
944 
924 
856 
787 
680 
574 
566 
702 
875 
895 
729 
585 
671 
930 
1056 
874 
537 
363 
476 
672 
700 
576 
542 
739 
995 
1054 
862 
683 
758 
992 
1103 
941 
672 
555 
653 
790 
761 
610 
560 
724 
948 
993 
792 
536 
500 
735 
1003 
1026 
786 
553 
564 
804 
952 
815 
537 
455 
695 
998 
1008 
697 
408 
468 
809 
1084 
1056 
809 
611 
591 
664 
733 
798 
889 
933 
848 
663 
544 
651 
901 
1042 
910 
615 
424 
488 
716 
889 
897 
829 
856 
993 
1125 
1168 
1103 
1015 
978 
973 
900 
712 
498 
392 
490 
713 
862 
808 
652 
631 
856 
1153 
1232 
1065 
928 
1018 
1218 
1228 
917 
579 
582 
930 
1268 
1268 
998 
780 
864 
1165 
1380 
1323 
1051 
806 
726 
770 
728 
520 
294 
269 
448 
560 
442 
239 
277 
640 
1026 
1050 
671 
267 
228 
571 
907 
910 
614 
338 
352 
582 
751 
684 
528 
525 
687 
767 
585 
313 
272 
534 
814 
827 
629 
518 
622 
799 
827 
730 
643 
598 
523 
435 
472 
695 
910 
883 
669 
605 
935 
1514 
1955 
2137 
2329 
2913 
3913 
4856 
5303 
5263 
5135 
5169 
5118 
4561 
3406 
2103 
1128 
527 
-7 
-646 
-1151 
-1208 
-868 
-546 
-549 
-706 
-662 
-349 
-105 
-241 
-636 
-867 
-722 
-399 
-238 
-294 
-309 
-116 
144 
250 
190 
181 
342 
529 
506 
282 
84 
93 
288 
503 
604 
567 
449 
339 
348 
520 
761 
933 
978 
905 
747 
560 
469 
570 
759 
770 
462 
111 
146 
609 
1047 
1035 
683 
477 
684 
1020 
1058 
784 
565 
658 
860 
857 
633 
495 
653 
897 
913 
668 
442 
485 
727 
910 
901 
754 
641 
690 
905 
1128 
1150 
895 
591 
601 
940 
1235 
1138 
788 
691 
1029 
1365 
1229 
743 
479 
727 
1119 
1164 
928 
902 
1284 
1684 
1668 
1330 
1115 
1233 
1408 
1302 
1020 
889 
1052 
1333 
1449 
1371 
1347 
1510 
1728 
1778 
1579 
1357 
1347 
1498 
1551 
1377 
1178 
1263 
1615 
1830 
1649 
1274 
1197 
1560 
1925 
1770 
1158 
674 
752 
1212 
1435 
1105 
553 
345 
615 
953 
928 
587 
354 
495 
780 
803 
469 
77 
15 
331 
675 
740 
527 
305 
284 
417 
529 
502 
399 
324 
309 
244 
149 
143 
315 
552 
592 
335 
9 
-51 
163 
358 
291 
89 
85 
369 
624 
550 
240 
104 
334 
666 
675 
314 
-60 
-79 
234 
556 
624 
459 
279 
251 
370 
509 
554 
488 
396 
373 
479 
601 
598 
456 
307 
304 
423 
526 
527 
482 
456 
499 
592 
729 
845 
827 
591 
280 
156 
311 
540 
547 
315 
127 
222 
503 
673 
575 
367 
279 
353 
434 
399 
293 
262 
370 
535 
599 
506 
382 
385 
508 
610 
592 
492 
448 
523 
671 
765 
762 
673 
532 
391 
337 
394 
465 
441 
350 
377 
633 
906 
923 
718 
614 
819 
1105 
1087 
711 
360 
371 
666 
875 
805 
608 
526 
594 
676 
698 
700 
679 
599 
509 
539 
691 
786 
693 
504 
469 
628 
752 
681 
563 
655 
923 
1060 
887 
610 
587 
806 
916 
687 
302 
145 
323 
572 
626 
505 
407 
462 
611 
743 
823 
887 
890 
786 
648 
602 
727 
889 
887 
689 
485 
501 
764 
995 
931 
633 
434 
562 
916 
1150 
1032 
687 
430 
435 
634 
811 
820 
654 
435 
347 
495 
768 
919 
828 
615 
536 
707 
969 
1026 
823 
551 
426 
501 
604 
581 
443 
327 
347 
489 
646 
772 
879 
986 
1037 
960 
773 
632 
706 
917 
970 
694 
280 
106 
340 
734 
871 
616 
282 
234 
522 
841 
903 
706 
492 
466 
620 
757 
735 
621 
590 
689 
825 
866 
795 
740 
801 
909 
922 
797 
628 
544 
593 
733 
902 
1023 
1007 
838 
646 
595 
741 
886 
794 
469 
151 
70 
256 
516 
674 
692 
645 
618 
686 
817 
898 
875 
805 
813 
912 
924 
762 
588 
633 
860 
997 
838 
578 
609 
984 
1325 
1270 
928 
753 
971 
1323 
1361 
1008 
592 
468 
612 
753 
695 
495 
312 
254 
311 
452 
656 
838 
869 
756 
659 
680 
776 
800 
636 
397 
277 
335 
433 
405 
266 
213 
373 
608 
694 
584 
454 
513 
706 
772 
592 
373 
387 
620 
754 
599 
311 
202 
336 
501 
485 
366 
359 
491 
610 
617 
566 
573 
624 
580 
418 
316 
382 
517 
620 
755 
1080 
1654 
2321 
2941 
3561 
4313 
5120 
5688 
5768 
5450 
5017 
4572 
3971 
3066 
1941 
869 
36 
-516 
-831 
-957 
-1025 
-1151 
-1271 
-1192 
-812 
-356 
-195 
-398 
-647 
-603 
-303 
-107 
-219 
-441 
-435 
-166 
61 
23 
-185 
-253 
-54 
212 
255 
74 
-55 
82 
328 
372 
177 
44 
222 
549 
608 
311 
44 
201 
660 
917 
692 
262 
93 
324 
635 
674 
467 
309 
375 
551 
592 
457 
352 
453 
669 
763 
588 
314 
239 
423 
648 
677 
509 
383 
437 
608 
751 
824 
847 
806 
685 
572 
555 
616 
638 
538 
422 
468 
654 
812 
800 
699 
704 
863 
1024 
1030 
881 
706 
608 
616 
701 
820 
920 
941 
899 
885 
1023 
1312 
1528 
1473 
1182 
963 
1056 
1344 
1513 
1415 
1217 
1153 
1237 
1320 
1307 
1265 
1312 
1409 
1413 
1339 
1333 
1494 
1705 
1763 
1613 
1415 
1323 
1334 
1332 
1228 
1085 
1036 
1145 
1283 
1323 
1237 
1146 
1184 
1268 
1233 
1040 
862 
866 
954 
910 
695 
532 
599 
742 
667 
350 
99 
169 
426 
533 
411 
247 
228 
323 
396 
411 
391 
327 
174 
-13 
-83 
54 
242 
284 
164 
65 
116 
246 
296 
164 
-69 
-249 
-268 
-134 
29 
105 
16 
-86 
-9 
262 
506 
488 
239 
42 
87 
277 
390 
331 
235 
274 
382 
404 
296 
219 
283 
438 
508 
390 
171 
33 
87 
322 
601 
765 
700 
459 
251 
244 
397 
495 
410 
254 
187 
254 
337 
363 
390 
458 
496 
438 
330 
309 
403 
489 
458 
360 
319 
436 
619 
691 
600 
426 
334 
439 
622 
658 
452 
212 
215 
499 
728 
635 
343 
235 
465 
735 
690 
369 
166 
291 
552 
644 
557 
525 
638 
738 
701 
638 
731 
923 
961 
712 
388 
328 
590 
915 
983 
736 
483 
526 
794 
972 
800 
452 
324 
550 
831 
830 
569 
413 
548 
739 
682 
454 
427 
720 
1011 
939 
560 
330 
516 
919 
1135 
976 
621 
350 
312 
460 
680 
801 
730 
546 
426 
537 
820 
1018 
941 
692 
522 
553 
637 
608 
533 
602 
820 
935 
734 
365 
248 
576 
1036 
1138 
816 
478 
515 
874 
1124 
1030 
754 
605 
657 
712 
634 
535 
613 
818 
905 
736 
470 
426 
675 
957 
968 
717 
494 
529 
735 
836 
721 
594 
671 
851 
885 
694 
519 
578 
793 
887 
774 
605 
610 
775 
885 
848 
740 
674 
647 
584 
510 
525 
595 
604 
525 
491 
606 
751 
700 
451 
281 
403 
655 
708 
525 
423 
617 
917 
958 
709 
554 
734 
1039 
1048 
704 
388 
427 
668 
751 
586 
472 
668 
994 
1089 
894 
714 
825 
1126 
1244 
984 
584 
443 
675 
952 
898 
539 
305 
493 
904 
1078 
879 
660 
786 
1142 
1259 
964 
616 
625 
920 
1105 
970 
726 
669 
802 
917 
939 
982 
1077 
1094 
975 
860 
897 
1006 
969 
757 
572 
602 
739 
746 
635 
596 
662 
673 
505 
295 
253 
356 
399 
296 
214 
331 
555 
644 
533 
423 
533 
772 
886 
748 
493 
344 
403 
578 
703 
671 
465 
206 
115 
340 
695 
822 
586 
257 
244 
623 
1035 
1066 
731 
451 
528 
832 
1010 
909 
700 
629 
738 
898 
1065 
1325 
1688 
2074 
2508 
3170 
4166 
5237 
5911 
5998 
5779 
5607 
5405 
4744 
3471 
2047 
1041 
522 
58 
-601 
-1184 
-1304 
-991 
-681 
-669 
-796 
-746 
-559 
-523 
-699 
-824 
-670 
-376 
-246 
-337 
-410 
-263 
-42 
-2 
-130 
-213 
-110 
64 
110 
27 
21 
191 
418 
483 
332 
133 
94 
260 
500 
631 
544 
322 
211 
364 
649 
718 
409 
-2 
-54 
329 
752 
754 
418 
202 
382 
729 
831 
628 
404 
368 
387 
279 
146 
240 
545 
747 
612 
335 
359 
759 
1155 
1115 
683 
297 
322 
649 
876 
769 
474 
336 
511 
822 
969 
886 
730 
663 
729 
827 
897 
959 
1050 
1095 
1020 
898 
888 
1016 
1122 
1030 
766 
575 
645 
925 
1161 
1168 
1003 
879 
950 
1157 
1349 
1402 
1336 
1251 
1260 
1380 
1528 
1596 
1550 
1459 
1432 
1489 
1512 
1417 
1274 
1233 
1351 
1527 
1572 
1417 
1206 
1133 
1221 
1319 
1284 
1121 
974 
993 
1160 
1311 
1274 
1052 
814 
764 
876 
963 
846 
557 
321 
305 
443 
540 
461 
247 
106 
178 
419 
607 
567 
373 
264 
337 
424 
336 
121 
55 
256 
437 
270 
-147 
-375 
-157 
241 
354 
88 
-177 
-87 
237 
414 
304 
127 
123 
203 
114 
-138 
-282 
-142 
93 
95 
-144 
-295 
-125 
229 
448 
409 
278 
224 
221 
194 
180 
264 
403 
411 
234 
126 
299 
608 
696 
447 
160 
153 
375 
502 
386 
205 
227 
418 
558 
502 
333 
234 
275 
390 
423 
301 
109 
34 
197 
473 
587 
459 
309 
407 
682 
763 
469 
80 
20 
313 
576 
511 
291 
291 
553 
741 
625 
400 
419 
657 
729 
417 
71 
156 
687 
1124 
1026 
573 
325 
537 
876 
913 
640 
418 
462 
598 
555 
376 
285 
388 
550 
588 
498 
399 
392 
503 
695 
872 
878 
693 
509 
536 
689 
687 
426 
168 
203 
470 
633 
545 
446 
605 
918 
1054 
887 
663 
624 
691 
599 
305 
85 
173 
468 
659 
567 
350 
297 
509 
804 
924 
773 
517 
417 
539 
715 
753 
601 
431 
396 
504 
598 
544 
415 
377 
502 
668 
732 
695 
682 
779 
874 
836 
677 
556 
540 
526 
423 
313 
363 
566 
697 
593 
385 
324 
460 
603 
583 
455 
411 
471 
540 
580 
665 
821 
887 
718 
447 
357 
554 
767 
693 
422 
333 
608 
978 
1000 
629 
316 
441 
846 
1013 
696 
229 
132 
506 
945 
1012 
712 
426 
420 
586 
672 
585 
405 
306 
360 
538 
738 
840 
775 
610 
537 
649 
795 
734 
482 
346 
567 
964 
1088 
779 
410 
486 
998 
1364 
1153 
578 
244 
459 
894 
1022 
744 
425 
375 
549 
696 
716 
746 
864 
929 
834 
680 
690 
915 
1096 
966 
596 
389 
583 
1008 
1202 
972 
630 
621 
974 
1252 
1093 
683 
496 
714 
981 
963 
754 
734 
995 
1192 
1021 
614 
356 
394 
534 
519 
362 
237 
210 
240 
334 
515 
696 
723 
615 
556 
631 
676 
488 
242 
257 
558 
731 
478 
138 
253 
795 
1127 
806 
214 
97 
609 
1064 
847 
212 
-51 
367 
954 
1042 
623 
255 
360 
775 
997 
809 
463 
314 
450 
663 
727 
669 
689 
954 
1424 
1961 
2539 
3233 
4106 
5018 
5730 
6136 
6254 
6145 
5749 
4953 
3784 
2466 
1274 
387 
-174 
-498 
-733 
-943 
-1051 
-966 
-700 
-460 
-453 
-663 
-891 
-963 
-905 
-848 
-808 
-655 
-326 
39 
223 
192 
103 
115 
232 
314 
220 
10 
-120 
-50 
193 
427 
472 
324 
182 
270 
579 
831 
768 
454 
221 
369 
770 
976 
724 
217 
-86 
68 
448 
644 
513 
273 
212 
373 
547 
575 
516 
516 
588 
604 
508 
414 
498 
777 
1029 
1034 
854 
679 
693 
879 
1064 
1071 
853 
519 
294 
356 
681 
1004 
1018 
720 
484 
658 
1138 
1439 
1240 
780 
586 
810 
1102 
1076 
770 
539 
562 
729 
870 
963 
1070 
1138 
1109 
1076 
1230 
1544 
1734 
1568 
1197 
977 
1119 
1435 
1593 
1457 
1197 
1084 
1217 
1491 
1686 
1673 
1516 
1363 
1303 
1320 
1361 
1401 
1437 
1456 
1438 
1397 
1446 
1594 
1694 
1581 
1288 
1083 
1169 
1383 
1400 
1080 
713 
691 
1049 
1371 
1278 
861 
569 
666 
937 
1004 
729 
373 
218 
261 
304 
239 
172 
226 
353 
388 
234 
12 
-59 
119 
377 
444 
234 
-117 
-300 
-192 
60 
180 
42 
-232 
-391 
-273 
29 
242 
173 
-56 
-111 
168 
540 
589 
207 
-229 
-329 
-96 
81 
-32 
-300 
-439 
-329 
-80 
187 
421 
510 
375 
100 
-61 
25 
220 
290 
192 
105 
124 
143 
63 
2 
135 
406 
527 
347 
98 
85 
331 
545 
517 
351 
266 
325 
361 
238 
57 
-1 
121 
276 
354 
371 
385 
433 
495 
518 
518 
479 
394 
294 
271 
380 
539 
601 
540 
483 
559 
725 
772 
613 
352 
228 
328 
547 
719 
770 
744 
679 
621 
610 
648 
679 
619 
448 
263 
191 
261 
381 
468 
548 
684 
853 
917 
790 
575 
491 
646 
889 
929 
667 
319 
196 
402 
706 
779 
554 
280 
274 
549 
859 
918 
738 
534 
507 
635 
683 
533 
323 
278 
427 
553 
498 
375 
436 
730 
993 
942 
622 
354 
381 
619 
794 
769 
593 
426 
357 
400 
515 
640 
686 
617 
482 
364 
334 
446 
702 
970 
1060 
889 
618 
531 
695 
884 
838 
615 
518 
657 
777 
590 
213 
88 
413 
846 
863 
416 
22 
184 
755 
1144 
981 
555 
393 
619 
853 
738 
412 
292 
523 
778 
723 
474 
413 
700 
1049 
1088 
816 
580 
604 
759 
769 
593 
438 
492 
706 
870 
845 
675 
523 
487 
562 
652 
633 
508 
411 
472 
677 
815 
766 
641 
664 
850 
952 
792 
531 
501 
754 
946 
746 
300 
86 
332 
735 
830 
550 
283 
369 
707 
916 
837 
671 
675 
832 
907 
791 
630 
645 
786 
820 
673 
518 
576 
865 
1095 
1068 
849 
683 
708 
827 
862 
780 
707 
751 
883 
987 
1016 
1004 
984 
938 
855 
794 
841 
971 
995 
757 
363 
132 
290 
673 
856 
613 
181 
-5 
195 
524 
650 
505 
312 
263 
341 
447 
479 
463 
461 
492 
527 
494 
375 
265 
329 
584 
808 
740 
426 
201 
292 
576 
704 
547 
317 
266 
379 
439 
339 
205 
205 
352 
504 
588 
605 
597 
549 
458 
422 
519 
725 
958 
1164 
1481 
2086 
3009 
4089 
5061 
5776 
6221 
6420 
6301 
5769 
4865 
3763 
2645 
1546 
481 
-476 
-1145 
-1435 
-1452 
-1377 
-1309 
-1213 
-1034 
-813 
-657 
-639 
-725 
-844 
-873 
-755 
-529 
-305 
-215 
-225 
-197 
-93 
7 
-23 
-156 
-247 
-187 
-31 
85 
131 
189 
313 
457 
528 
488 
366 
250 
176 
148 
159 
178 
189 
222 
301 
386 
407 
361 
353 
464 
622 
681 
562 
360 
281 
380 
586 
768 
844 
847 
787 
674 
556 
563 
750 
996 
1071 
852 
518 
411 
677 
1062 
1161 
858 
466 
405 
700 
977 
929 
689 
600 
808 
1059 
1034 
801 
685 
836 
1064 
1114 
982 
887 
905 
946 
942 
955 
1051 
1113 
963 
685 
575 
825 
1270 
1562 
1551 
1390 
1321 
1434 
1608 
1690 
1618 
1432 
1225 
1083 
1066 
1161 
1297 
1392 
1424 
1397 
1341 
1338 
1418 
1534 
1587 
1523 
1452 
1485 
1545 
1462 
1262 
1195 
1412 
1687 
1610 
1153 
775 
889 
1289 
1384 
975 
528 
607 
1091 
1295 
887 
324 
278 
777 
1168 
944 
370 
62 
216 
460 
418 
165 
21 
70 
124 
72 
0 
48 
143 
127 
-6 
-93 
-17 
139 
226 
210 
138 
78 
72 
140 
254 
289 
112 
-163 
-238 
22 
344 
350 
38 
-176 
18 
382 
451 
130 
-156 
30 
470 
583 
187 
-226 
-120 
396 
682 
420 
-17 
-60 
312 
566 
375 
33 
71 
500 
759 
532 
151 
149 
543 
786 
545 
147 
138 
533 
778 
506 
42 
0 
502 
998 
930 
373 
-67 
78 
594 
958 
855 
449 
155 
245 
607 
888 
854 
572 
303 
303 
538 
779 
876 
840 
788 
813 
857 
827 
716 
612 
593 
594 
532 
445 
474 
691 
985 
1112 
1001 
813 
745 
806 
834 
714 
496 
337 
315 
401 
532 
672 
782 
826 
828 
839 
869 
873 
775 
601 
462 
429 
477 
534 
531 
471 
425 
455 
574 
717 
820 
864 
883 
884 
834 
703 
555 
494 
560 
647 
608 
405 
185 
165 
397 
690 
789 
595 
290 
181 
405 
741 
836 
615 
351 
350 
615 
846 
799 
580 
501 
677 
890 
876 
630 
422 
484 
735 
917 
876 
719 
638 
684 
720 
588 
357 
266 
438 
704 
738 
457 
182 
307 
792 
1137 
949 
408 
57 
209 
623 
808 
626 
358 
296 
440 
592 
665 
687 
679 
612 
477 
394 
460 
607 
686 
643 
554 
508 
536 
582 
593 
588 
551 
489 
485 
548 
640 
683 
677 
675 
705 
715 
644 
541 
554 
717 
880 
861 
673 
526 
611 
858 
998 
833 
503 
366 
578 
904 
984 
750 
470 
446 
661 
840 
792 
572 
400 
423 
619 
866 
1009 
917 
690 
575 
751 
1099 
1262 
1048 
671 
517 
718 
1023 
1134 
1024 
907 
927 
1018 
1035 
923 
769 
692 
745 
856 
888 
778 
594 
517 
630 
807 
818 
623 
402 
305 
335 
390 
414 
406 
375 
308 
297 
468 
789 
980 
845 
528 
372 
513 
693 
603 
295 
99 
231 
535 
703 
628 
500 
495 
579 
597 
478 
326 
264 
329 
440 
527 
542 
530 
569 
683 
843 
886 
721 
473 
400 
662 
1146 
1628 
2077 
2680 
3576 
4615 
5468 
5960 
6185 
6275 
6150 
5592 
4556 
3306 
2194 
1355 
651 
-97 
-868 
-1439 
-1603 
-1363 
-993 
-829 
-972 
-1187 
-1165 
-858 
-554 
-523 
-679 
-741 
-576 
-360 
-329 
-384 
-312 
-77 
57 
-69 
-276 
-253 
40 
335 
430 
350 
255 
236 
259 
287 
311 
310 
272 
262 
380 
566 
651 
558 
450 
527 
708 
705 
440 
195 
269 
569 
731 
603 
411 
406 
518 
526 
396 
347 
491 
646 
584 
365 
275 
486 
819 
954 
818 
626 
612 
782 
926 
845 
600 
452 
578 
801 
831 
597 
365 
446 
807 
1061 
982 
767 
773 
1036 
1210 
1049 
741 
683 
963 
1246 
1205 
953 
898 
1188 
1507 
1462 
1096 
827 
919 
1201 
1284 
1070 
864 
991 
1387 
1664 
1583 
1319 
1237 
1420 
1626 
1602 
1391 
1265 
1361 
1514 
1563 
1513 
1499 
1562 
1563 
1398 
1181 
1119 
1233 
1348 
1297 
1184 
1225 
1412 
1523 
1380 
1138 
1079 
1209 
1235 
948 
555 
463 
725 
971 
884 
595 
474 
608 
694 
508 
219 
169 
369 
467 
211 
-173 
-266 
25 
330 
283 
-72 
-353 
-269 
105 
466 
534 
304 
-5 
-140 
-14 
176 
175 
-93 
-444 
-584 
-445 
-208 
-71 
-50 
-17 
82 
190 
232 
215 
237 
300 
270 
79 
-166 
-249 
-81 
154 
197 
30 
-137 
-82 
134 
259 
179 
39 
37 
167 
249 
158 
24 
51 
239 
379 
301 
127 
130 
373 
631 
625 
366 
117 
115 
325 
460 
334 
95 
25 
239 
535 
583 
312 
35 
78 
405 
664 
576 
311 
246 
506 
837 
879 
623 
374 
383 
562 
665 
565 
362 
242 
293 
500 
734 
819 
662 
364 
219 
390 
687 
764 
510 
209 
271 
711 
1114 
1096 
747 
505 
617 
870 
860 
518 
185 
216 
524 
731 
595 
304 
234 
450 
709 
775 
689 
641 
697 
747 
676 
564 
522 
546 
509 
370 
245 
249 
329 
360 
281 
226 
360 
614 
777 
733 
597 
573 
701 
805 
694 
416 
245 
354 
597 
681 
494 
274 
332 
675 
998 
969 
596 
239 
220 
469 
650 
552 
285 
125 
186 
370 
528 
628 
675 
620 
434 
274 
320 
527 
666 
544 
306 
291 
577 
851 
798 
478 
268 
407 
724 
838 
618 
333 
317 
583 
820 
746 
453 
303 
469 
729 
754 
519 
355 
498 
808 
935 
776 
580 
568 
656 
628 
478 
397 
474 
567 
475 
278 
246 
452 
711 
816 
748 
663 
682 
763 
851 
909 
916 
823 
641 
489 
471 
568 
654 
603 
463 
372 
454 
693 
945 
1064 
938 
689 
587 
754 
1042 
1160 
1006 
764 
641 
643 
658 
680 
801 
980 
1012 
795 
540 
576 
950 
1303 
1315 
1017 
754 
751 
905 
998 
964 
892 
876 
850 
752 
615 
589 
735 
923 
923 
643 
315 
253 
481 
736 
732 
519 
405 
539 
740 
731 
534 
428 
555 
724 
671 
404 
195 
232 
418 
538 
472 
335 
230 
205 
294 
476 
640 
633 
451 
320 
442 
733 
853 
647 
377 
413 
751 
985 
812 
408 
178 
248 
365 
297 
160 
198 
432 
643 
778 
1067 
1733 
2670 
3518 
4076 
4523 
5102 
5759 
6213 
6143 
5555 
4670 
3669 
2675 
1731 
857 
56 
-674 
-1262 
-1617 
-1669 
-1448 
-1174 
-1080 
-1226 
-1379 
-1260 
-857 
-490 
-493 
-814 
-996 
-659 
17 
439 
260 
-244 
-490 
-253 
94 
123 
-121 
-230 
-4 
296 
335 
178 
143 
329 
458 
261 
-106 
-223 
33 
369 
436 
276 
247 
504 
847 
918 
653 
320 
228 
432 
690 
736 
572 
429 
486 
711 
915 
921 
761 
613 
593 
656 
680 
607 
499 
454 
522 
647 
740 
766 
753 
761 
797 
811 
777 
739 
743 
783 
837 
853 
847 
826 
788 
736 
715 
768 
801 
747 
666 
687 
840 
977 
953 
819 
815 
1047 
1323 
1401 
1303 
1288 
1488 
1700 
1623 
1282 
1032 
1149 
1445 
1522 
1277 
1085 
1309 
1789 
2001 
1687 
1203 
1084 
1451 
1837 
1762 
1274 
877 
943 
1319 
1629 
1650 
1506 
1413 
1388 
1338 
1289 
1381 
1611 
1701 
1435 
984 
776 
986 
1282 
1235 
857 
564 
650 
900 
919 
658 
438 
480 
621 
522 
202 
-34 
7 
168 
193 
116 
134 
273 
333 
167 
-49 
-58 
153 
316 
215 
-37 
-151 
-45 
77 
16 
-158 
-227 
-152 
-77 
-118 
-191 
-145 
45 
224 
257 
159 
54 
10 
46 
107 
89 
-4 
-141 
-198 
-120 
9 
73 
42 
30 
100 
181 
216 
251 
356 
446 
349 
76 
-148 
-134 
43 
140 
63 
-50 
-13 
200 
450 
599 
612 
516 
349 
221 
219 
307 
318 
173 
13 
55 
297 
480 
451 
328 
314 
437 
480 
341 
185 
279 
597 
818 
697 
374 
235 
453 
762 
787 
435 
17 
-80 
207 
574 
651 
412 
153 
183 
497 
815 
896 
749 
550 
445 
429 
459 
501 
540 
534 
468 
393 
398 
538 
716 
797 
730 
585 
453 
418 
491 
577 
590 
488 
345 
286 
340 
436 
484 
493 
520 
579 
619 
581 
514 
507 
587 
677 
718 
686 
585 
443 
337 
354 
508 
666 
669 
515 
384 
441 
637 
762 
693 
539 
487 
574 
670 
627 
491 
388 
404 
479 
510 
455 
373 
363 
447 
573 
651 
617 
501 
393 
379 
452 
533 
500 
379 
302 
344 
457 
519 
491 
452 
488 
568 
586 
552 
570 
656 
703 
612 
462 
477 
702 
898 
813 
509 
320 
461 
743 
810 
591 
377 
466 
811 
1073 
1047 
845 
702 
724 
800 
785 
683 
561 
485 
497 
579 
669 
704 
709 
800 
990 
1159 
1143 
985 
886 
944 
999 
872 
618 
461 
517 
671 
782 
872 
1010 
1104 
1010 
800 
758 
1003 
1261 
1168 
748 
400 
427 
667 
758 
580 
376 
356 
476 
538 
491 
454 
485 
529 
514 
505 
570 
657 
603 
408 
295 
414 
630 
644 
355 
68 
143 
571 
942 
918 
589 
322 
335 
513 
639 
637 
594 
525 
395 
276 
311 
518 
697 
618 
351 
202 
322 
558 
652 
551 
407 
426 
658 
1022 
1436 
1835 
2228 
2698 
3392 
4297 
5123 
5517 
5409 
5087 
4789 
4421 
3648 
2406 
1085 
122 
-435 
-913 
-1466 
-1871 
-1803 
-1316 
-898 
-845 
-1014 
-1021 
-756 
-476 
-446 
-597 
-654 
-521 
-338 
-243 
-191 
-67 
113 
202 
164 
115 
147 
207 
204 
153 
167 
270 
346 
318 
223 
185 
269 
413 
490 
430 
295 
213 
281 
464 
603 
611 
477 
320 
280 
376 
525 
620 
615 
538 
493 
535 
628 
682 
691 
769 
952 
1082 
977 
670 
471 
606 
913 
988 
632 
124 
-37 
327 
861 
1080 
841 
463 
359 
605 
954 
1128 
1055 
857 
670 
571 
611 
785 
968 
978 
778 
615 
745 
1085 
1271 
1103 
817 
782 
1029 
1204 
1076 
796 
698 
843 
990 
974 
912 
1022 
1261 
1406 
1352 
1256 
1272 
1370 
1419 
1384 
1359 
1389 
1415 
1401 
1406 
1462 
1499 
1447 
1365 
1389 
1508 
1532 
1338 
1089 
1050 
1214 
1324 
1197 
984 
911 
1057 
1211 
1172 
1014 
907 
884 
818 
649 
484 
480 
601 
630 
447 
123 
-113 
-132 
4 
131 
146 
86 
70 
160 
265 
280 
207 
151 
182 
208 
99 
-116 
-286 
-291 
-184 
-113 
-140 
-185 
-118 
49 
180 
179 
4 
-217 
-294 
-145 
52 
58 
-171 
-369 
-236 
106 
281 
61 
-280 
-298 
36 
306 
189 
-117 
-188 
73 
311 
226 
-14 
-52 
174 
345 
206 
-52 
-101 
68 
149 
-84 
-436 
-470 
-73 
430 
609 
390 
106 
113 
417 
766 
863 
654 
297 
30 
42 
257 
434 
352 
89 
-19 
214 
570 
670 
461 
297 
452 
717 
656 
255 
-3 
231 
691 
805 
420 
18 
72 
510 
861 
813 
545 
390 
442 
575 
641 
605 
479 
304 
200 
253 
425 
546 
494 
398 
389 
443 
423 
327 
336 
559 
805 
777 
437 
133 
194 
556 
813 
660 
258 
49 
281 
727 
966 
781 
383 
156 
267 
514 
590 
403 
149 
90 
235 
439 
537 
536 
555 
616 
645 
613 
587 
635 
694 
632 
448 
342 
439 
630 
645 
431 
225 
283 
538 
647 
433 
124 
81 
352 
636 
622 
373 
209 
326 
568 
663 
554 
391 
340 
409 
505 
528 
460 
355 
277 
298 
420 
571 
624 
550 
457 
473 
636 
793 
781 
563 
331 
292 
448 
575 
490 
307 
293 
531 
749 
697 
471 
401 
596 
757 
605 
303 
251 
495 
695 
576 
328 
389 
796 
1100 
942 
514 
296 
453 
685 
692 
521 
439 
559 
723 
766 
705 
676 
719 
777 
771 
701 
624 
568 
564 
595 
671 
765 
822 
790 
662 
572 
653 
852 
970 
852 
605 
526 
764 
1120 
1277 
1118 
874 
811 
951 
1071 
987 
768 
629 
649 
709 
632 
439 
369 
558 
853 
933 
677 
293 
133 
328 
608 
635 
356 
27 
-52 
158 
469 
658 
643 
505 
358 
303 
382 
533 
645 
646 
548 
467 
454 
480 
487 
491 
536 
615 
643 
559 
375 
222 
240 
420 
611 
644 
469 
266 
324 
695 
1027 
961 
562 
371 
828 
1720 
2442 
2719 
2951 
3653 
4792 
5733 
6017 
5790 
5440 
5042 
4331 
3199 
1938 
921 
201 
-378 
-898 
-1211 
-1229 
-1083 
-970 
-929 
-884 
-822 
-821 
-871 
-881 
-786 
-649 
-561 
-483 
-295 
-19 
172 
145 
-9 
-56 
105 
286 
246 
-31 
-324 
-333 
-26 
333 
479 
368 
182 
135 
270 
453 
570 
565 
453 
276 
121 
99 
248 
438 
492 
361 
247 
336 
562 
673 
553 
381 
409 
649 
788 
594 
230 
129 
505 
1011 
1111 
650 
66 
-16 
484 
1036 
1101 
714 
361 
385 
643 
788 
746 
674 
669 
627 
522 
545 
819 
1148 
1183 
888 
636 
704 
908 
873 
563 
334 
472 
783 
905 
850 
885 
1113 
1296 
1243 
1095 
1119 
1265 
1243 
963 
739 
892 
1284 
1471 
1276 
991 
1002 
1295 
1529 
1503 
1345 
1286 
1343 
1384 
1403 
1466 
1569 
1570 
1386 
1162 
1132 
1307 
1453 
1376 
1180 
1114 
1263 
1439 
1474 
1385 
1303 
1278 
1282 
1202 
1028 
830 
695 
647 
609 
521 
436 
448 
581 
709 
738 
689 
683 
715 
646 
402 
139 
58 
125 
103 
-72 
-153 
58 
348 
333 
-26 
-305 
-174 
159 
211 
-127 
-463 
-404 
-34 
272 
314 
252 
237 
215 
111 
23 
94 
269 
309 
137 
-72 
-122 
-51 
-9 
-50 
-63 
27 
134 
134 
68 
117 
342 
579 
629 
468 
246 
88 
-4 
-62 
-65 
20 
129 
159 
135 
167 
320 
486 
499 
376 
278 
301 
359 
340 
286 
299 
405 
474 
387 
228 
180 
293 
440 
489 
432 
386 
447 
578 
666 
633 
522 
442 
466 
556 
612 
580 
494 
422 
406 
428 
465 
524 
600 
629 
562 
416 
294 
319 
487 
648 
656 
489 
334 
373 
609 
851 
902 
786 
727 
836 
955 
840 
496 
212 
220 
415 
492 
318 
103 
134 
430 
739 
826 
704 
541 
448 
447 
513 
592 
602 
497 
324 
